Created as New Dataset,Sample 005 By Administrator Date Thursday, December 10 2020
cm-1,%T
4000.00,95.14
3999.00,95.16
3998.00,95.15
3997.00,95.12
3996.00,95.08
3995.00,95.04
3994.00,95.02
3993.00,95.02
3992.00,95.01
3991.00,94.99
3990.00,94.97
3989.00,94.95
3988.00,94.95
3987.00,94.97
3986.00,95.00
3985.00,95.01
3984.00,95.01
3983.00,95.00
3982.00,94.99
3981.00,94.98
3980.00,94.97
3979.00,94.96
3978.00,94.95
3977.00,94.95
3976.00,94.97
3975.00,95.00
3974.00,95.03
3973.00,95.03
3972.00,95.03
3971.00,95.03
3970.00,95.03
3969.00,95.03
3968.00,95.03
3967.00,95.03
3966.00,95.02
3965.00,95.02
3964.00,95.02
3963.00,95.04
3962.00,95.06
3961.00,95.09
3960.00,95.13
3959.00,95.16
3958.00,95.16
3957.00,95.13
3956.00,95.09
3955.00,95.05
3954.00,95.03
3953.00,95.02
3952.00,95.04
3951.00,95.06
3950.00,95.08
3949.00,95.11
3948.00,95.12
3947.00,95.11
3946.00,95.10
3945.00,95.09
3944.00,95.09
3943.00,95.09
3942.00,95.07
3941.00,95.05
3940.00,95.03
3939.00,95.02
3938.00,95.03
3937.00,95.04
3936.00,95.06
3935.00,95.09
3934.00,95.11
3933.00,95.13
3932.00,95.14
3931.00,95.13
3930.00,95.10
3929.00,95.07
3928.00,95.06
3927.00,95.07
3926.00,95.11
3925.00,95.15
3924.00,95.18
3923.00,95.17
3922.00,95.15
3921.00,95.12
3920.00,95.10
3919.00,95.09
3918.00,95.10
3917.00,95.11
3916.00,95.13
3915.00,95.13
3914.00,95.11
3913.00,95.09
3912.00,95.07
3911.00,95.06
3910.00,95.06
3909.00,95.07
3908.00,95.09
3907.00,95.11
3906.00,95.13
3905.00,95.12
3904.00,95.05
3903.00,94.96
3902.00,94.90
3901.00,94.90
3900.00,94.96
3899.00,95.03
3898.00,95.09
3897.00,95.14
3896.00,95.18
3895.00,95.24
3894.00,95.31
3893.00,95.37
3892.00,95.37
3891.00,95.31
3890.00,95.20
3889.00,95.11
3888.00,95.05
3887.00,95.02
3886.00,95.02
3885.00,95.02
3884.00,95.02
3883.00,95.03
3882.00,95.06
3881.00,95.09
3880.00,95.10
3879.00,95.09
3878.00,95.07
3877.00,95.07
3876.00,95.08
3875.00,95.09
3874.00,95.12
3873.00,95.14
3872.00,95.19
3871.00,95.23
3870.00,95.25
3869.00,95.23
3868.00,95.19
3867.00,95.13
3866.00,95.07
3865.00,95.02
3864.00,95.00
3863.00,95.03
3862.00,95.07
3861.00,95.09
3860.00,95.07
3859.00,95.02
3858.00,94.98
3857.00,94.99
3856.00,95.05
3855.00,95.13
3854.00,95.14
3853.00,95.03
3852.00,94.90
3851.00,94.85
3850.00,94.85
3849.00,94.88
3848.00,94.93
3847.00,94.99
3846.00,95.05
3845.00,95.12
3844.00,95.18
3843.00,95.24
3842.00,95.26
3841.00,95.22
3840.00,95.12
3839.00,95.00
3838.00,94.91
3837.00,94.87
3836.00,94.86
3835.00,94.88
3834.00,94.91
3833.00,94.95
3832.00,94.99
3831.00,95.03
3830.00,95.05
3829.00,95.05
3828.00,95.05
3827.00,95.04
3826.00,95.02
3825.00,95.01
3824.00,95.02
3823.00,95.06
3822.00,95.11
3821.00,95.12
3820.00,95.09
3819.00,95.07
3818.00,95.08
3817.00,95.10
3816.00,95.11
3815.00,95.08
3814.00,95.04
3813.00,95.03
3812.00,95.03
3811.00,95.05
3810.00,95.07
3809.00,95.06
3808.00,95.01
3807.00,94.95
3806.00,94.90
3805.00,94.88
3804.00,94.88
3803.00,94.89
3802.00,94.91
3801.00,94.92
3800.00,94.90
3799.00,94.88
3798.00,94.87
3797.00,94.89
3796.00,94.94
3795.00,94.98
3794.00,95.01
3793.00,95.03
3792.00,95.05
3791.00,95.06
3790.00,95.06
3789.00,95.05
3788.00,95.04
3787.00,95.02
3786.00,94.99
3785.00,94.95
3784.00,94.87
3783.00,94.80
3782.00,94.75
3781.00,94.76
3780.00,94.83
3779.00,94.90
3778.00,94.93
3777.00,94.93
3776.00,94.91
3775.00,94.91
3774.00,94.94
3773.00,94.97
3772.00,94.99
3771.00,94.97
3770.00,94.92
3769.00,94.86
3768.00,94.81
3767.00,94.80
3766.00,94.81
3765.00,94.82
3764.00,94.85
3763.00,94.87
3762.00,94.89
3761.00,94.89
3760.00,94.87
3759.00,94.82
3758.00,94.78
3757.00,94.79
3756.00,94.82
3755.00,94.84
3754.00,94.83
3753.00,94.78
3752.00,94.71
3751.00,94.63
3750.00,94.54
3749.00,94.46
3748.00,94.42
3747.00,94.42
3746.00,94.44
3745.00,94.45
3744.00,94.44
3743.00,94.43
3742.00,94.45
3741.00,94.45
3740.00,94.42
3739.00,94.34
3738.00,94.25
3737.00,94.18
3736.00,94.15
3735.00,94.14
3734.00,94.13
3733.00,94.13
3732.00,94.18
3731.00,94.26
3730.00,94.32
3729.00,94.36
3728.00,94.36
3727.00,94.34
3726.00,94.29
3725.00,94.22
3724.00,94.15
3723.00,94.11
3722.00,94.12
3721.00,94.17
3720.00,94.22
3719.00,94.26
3718.00,94.28
3717.00,94.29
3716.00,94.29
3715.00,94.28
3714.00,94.27
3713.00,94.27
3712.00,94.27
3711.00,94.20
3710.00,94.08
3709.00,93.95
3708.00,93.87
3707.00,93.83
3706.00,93.80
3705.00,93.76
3704.00,93.69
3703.00,93.62
3702.00,93.56
3701.00,93.53
3700.00,93.51
3699.00,93.47
3698.00,93.40
3697.00,93.32
3696.00,93.25
3695.00,93.18
3694.00,93.13
3693.00,93.07
3692.00,92.99
3691.00,92.89
3690.00,92.75
3689.00,92.58
3688.00,92.43
3687.00,92.31
3686.00,92.25
3685.00,92.21
3684.00,92.15
3683.00,92.07
3682.00,91.93
3681.00,91.78
3680.00,91.63
3679.00,91.52
3678.00,91.42
3677.00,91.29
3676.00,91.13
3675.00,91.00
3674.00,90.94
3673.00,90.89
3672.00,90.79
3671.00,90.59
3670.00,90.31
3669.00,90.07
3668.00,89.91
3667.00,89.80
3666.00,89.70
3665.00,89.60
3664.00,89.49
3663.00,89.36
3662.00,89.19
3661.00,89.01
3660.00,88.82
3659.00,88.63
3658.00,88.44
3657.00,88.23
3656.00,88.04
3655.00,87.90
3654.00,87.81
3653.00,87.72
3652.00,87.55
3651.00,87.22
3650.00,86.75
3649.00,86.30
3648.00,86.06
3647.00,85.98
3646.00,85.98
3645.00,85.98
3644.00,85.94
3643.00,85.87
3642.00,85.77
3641.00,85.64
3640.00,85.51
3639.00,85.39
3638.00,85.28
3637.00,85.18
3636.00,85.06
3635.00,84.92
3634.00,84.78
3633.00,84.66
3632.00,84.58
3631.00,84.46
3630.00,84.23
3629.00,83.87
3628.00,83.56
3627.00,83.41
3626.00,83.35
3625.00,83.29
3624.00,83.21
3623.00,83.11
3622.00,83.02
3621.00,82.94
3620.00,82.81
3619.00,82.59
3618.00,82.33
3617.00,82.09
3616.00,81.91
3615.00,81.79
3614.00,81.73
3613.00,81.67
3612.00,81.58
3611.00,81.42
3610.00,81.17
3609.00,80.89
3608.00,80.69
3607.00,80.61
3606.00,80.60
3605.00,80.56
3604.00,80.47
3603.00,80.32
3602.00,80.13
3601.00,79.95
3600.00,79.82
3599.00,79.74
3598.00,79.69
3597.00,79.64
3596.00,79.56
3595.00,79.42
3594.00,79.26
3593.00,79.12
3592.00,79.00
3591.00,78.89
3590.00,78.75
3589.00,78.54
3588.00,78.28
3587.00,78.05
3586.00,77.90
3585.00,77.80
3584.00,77.71
3583.00,77.60
3582.00,77.51
3581.00,77.45
3580.00,77.39
3579.00,77.31
3578.00,77.19
3577.00,77.02
3576.00,76.82
3575.00,76.61
3574.00,76.42
3573.00,76.26
3572.00,76.15
3571.00,76.09
3570.00,76.04
3569.00,75.93
3568.00,75.69
3567.00,75.36
3566.00,75.07
3565.00,74.90
3564.00,74.82
3563.00,74.75
3562.00,74.67
3561.00,74.58
3560.00,74.49
3559.00,74.39
3558.00,74.26
3557.00,74.11
3556.00,73.95
3555.00,73.79
3554.00,73.62
3553.00,73.44
3552.00,73.24
3551.00,73.07
3550.00,72.93
3549.00,72.80
3548.00,72.65
3547.00,72.50
3546.00,72.36
3545.00,72.22
3544.00,72.07
3543.00,71.91
3542.00,71.74
3541.00,71.57
3540.00,71.41
3539.00,71.27
3538.00,71.13
3537.00,70.99
3536.00,70.85
3535.00,70.70
3534.00,70.55
3533.00,70.41
3532.00,70.30
3531.00,70.19
3530.00,70.06
3529.00,69.90
3528.00,69.72
3527.00,69.57
3526.00,69.45
3525.00,69.33
3524.00,69.17
3523.00,68.95
3522.00,68.73
3521.00,68.55
3520.00,68.42
3519.00,68.31
3518.00,68.19
3517.00,68.04
3516.00,67.86
3515.00,67.69
3514.00,67.54
3513.00,67.41
3512.00,67.29
3511.00,67.17
3510.00,67.03
3509.00,66.88
3508.00,66.73
3507.00,66.58
3506.00,66.42
3505.00,66.25
3504.00,66.09
3503.00,65.95
3502.00,65.84
3501.00,65.73
3500.00,65.62
3499.00,65.49
3498.00,65.35
3497.00,65.21
3496.00,65.07
3495.00,64.90
3494.00,64.72
3493.00,64.55
3492.00,64.39
3491.00,64.24
3490.00,64.11
3489.00,63.96
3488.00,63.80
3487.00,63.64
3486.00,63.49
3485.00,63.35
3484.00,63.21
3483.00,63.07
3482.00,62.94
3481.00,62.81
3480.00,62.68
3479.00,62.54
3478.00,62.39
3477.00,62.24
3476.00,62.08
3475.00,61.93
3474.00,61.79
3473.00,61.67
3472.00,61.54
3471.00,61.41
3470.00,61.24
3469.00,61.06
3468.00,60.88
3467.00,60.70
3466.00,60.54
3465.00,60.42
3464.00,60.33
3463.00,60.25
3462.00,60.16
3461.00,60.05
3460.00,59.92
3459.00,59.77
3458.00,59.60
3457.00,59.42
3456.00,59.25
3455.00,59.11
3454.00,59.01
3453.00,58.90
3452.00,58.76
3451.00,58.61
3450.00,58.44
3449.00,58.27
3448.00,58.11
3447.00,58.00
3446.00,57.92
3445.00,57.86
3444.00,57.79
3443.00,57.67
3442.00,57.51
3441.00,57.32
3440.00,57.12
3439.00,56.93
3438.00,56.76
3437.00,56.63
3436.00,56.53
3435.00,56.45
3434.00,56.35
3433.00,56.23
3432.00,56.08
3431.00,55.94
3430.00,55.80
3429.00,55.68
3428.00,55.57
3427.00,55.47
3426.00,55.36
3425.00,55.24
3424.00,55.12
3423.00,54.99
3422.00,54.86
3421.00,54.73
3420.00,54.59
3419.00,54.45
3418.00,54.31
3417.00,54.19
3416.00,54.08
3415.00,53.99
3414.00,53.91
3413.00,53.83
3412.00,53.74
3411.00,53.65
3410.00,53.55
3409.00,53.44
3408.00,53.33
3407.00,53.22
3406.00,53.11
3405.00,53.01
3404.00,52.91
3403.00,52.81
3402.00,52.69
3401.00,52.55
3400.00,52.41
3399.00,52.28
3398.00,52.17
3397.00,52.10
3396.00,52.07
3395.00,52.04
3394.00,52.00
3393.00,51.93
3392.00,51.83
3391.00,51.72
3390.00,51.62
3389.00,51.54
3388.00,51.46
3387.00,51.40
3386.00,51.34
3385.00,51.30
3384.00,51.25
3383.00,51.20
3382.00,51.13
3381.00,51.04
3380.00,50.95
3379.00,50.89
3378.00,50.84
3377.00,50.81
3376.00,50.77
3375.00,50.72
3374.00,50.65
3373.00,50.58
3372.00,50.50
3371.00,50.41
3370.00,50.32
3369.00,50.24
3368.00,50.17
3367.00,50.14
3366.00,50.13
3365.00,50.11
3364.00,50.07
3363.00,50.01
3362.00,49.95
3361.00,49.93
3360.00,49.93
3359.00,49.94
3358.00,49.91
3357.00,49.87
3356.00,49.82
3355.00,49.80
3354.00,49.80
3353.00,49.79
3352.00,49.77
3351.00,49.75
3350.00,49.74
3349.00,49.74
3348.00,49.75
3347.00,49.76
3346.00,49.76
3345.00,49.74
3344.00,49.73
3343.00,49.71
3342.00,49.70
3341.00,49.67
3340.00,49.64
3339.00,49.59
3338.00,49.56
3337.00,49.54
3336.00,49.55
3335.00,49.56
3334.00,49.57
3333.00,49.57
3332.00,49.56
3331.00,49.56
3330.00,49.55
3329.00,49.54
3328.00,49.51
3327.00,49.47
3326.00,49.45
3325.00,49.45
3324.00,49.49
3323.00,49.54
3322.00,49.59
3321.00,49.61
3320.00,49.61
3319.00,49.62
3318.00,49.65
3317.00,49.69
3316.00,49.71
3315.00,49.71
3314.00,49.67
3313.00,49.64
3312.00,49.64
3311.00,49.66
3310.00,49.68
3309.00,49.67
3308.00,49.64
3307.00,49.61
3306.00,49.60
3305.00,49.61
3304.00,49.61
3303.00,49.58
3302.00,49.53
3301.00,49.50
3300.00,49.49
3299.00,49.51
3298.00,49.54
3297.00,49.57
3296.00,49.62
3295.00,49.68
3294.00,49.73
3293.00,49.76
3292.00,49.78
3291.00,49.78
3290.00,49.78
3289.00,49.77
3288.00,49.75
3287.00,49.73
3286.00,49.70
3285.00,49.67
3284.00,49.67
3283.00,49.67
3282.00,49.68
3281.00,49.69
3280.00,49.69
3279.00,49.70
3278.00,49.73
3277.00,49.77
3276.00,49.83
3275.00,49.86
3274.00,49.87
3273.00,49.87
3272.00,49.87
3271.00,49.88
3270.00,49.89
3269.00,49.88
3268.00,49.85
3267.00,49.84
3266.00,49.84
3265.00,49.85
3264.00,49.85
3263.00,49.82
3262.00,49.79
3261.00,49.78
3260.00,49.81
3259.00,49.83
3258.00,49.84
3257.00,49.83
3256.00,49.81
3255.00,49.81
3254.00,49.83
3253.00,49.87
3252.00,49.92
3251.00,49.96
3250.00,50.00
3249.00,50.05
3248.00,50.10
3247.00,50.14
3246.00,50.17
3245.00,50.20
3244.00,50.22
3243.00,50.24
3242.00,50.27
3241.00,50.33
3240.00,50.40
3239.00,50.45
3238.00,50.46
3237.00,50.43
3236.00,50.40
3235.00,50.38
3234.00,50.41
3233.00,50.48
3232.00,50.59
3231.00,50.70
3230.00,50.79
3229.00,50.86
3228.00,50.91
3227.00,50.96
3226.00,51.01
3225.00,51.06
3224.00,51.11
3223.00,51.16
3222.00,51.22
3221.00,51.28
3220.00,51.33
3219.00,51.36
3218.00,51.41
3217.00,51.48
3216.00,51.57
3215.00,51.67
3214.00,51.77
3213.00,51.88
3212.00,51.98
3211.00,52.04
3210.00,52.07
3209.00,52.09
3208.00,52.15
3207.00,52.27
3206.00,52.42
3205.00,52.59
3204.00,52.74
3203.00,52.86
3202.00,52.96
3201.00,53.03
3200.00,53.07
3199.00,53.09
3198.00,53.13
3197.00,53.22
3196.00,53.37
3195.00,53.52
3194.00,53.67
3193.00,53.79
3192.00,53.91
3191.00,54.03
3190.00,54.16
3189.00,54.29
3188.00,54.42
3187.00,54.54
3186.00,54.67
3185.00,54.81
3184.00,54.96
3183.00,55.11
3182.00,55.25
3181.00,55.40
3180.00,55.56
3179.00,55.72
3178.00,55.87
3177.00,56.00
3176.00,56.11
3175.00,56.21
3174.00,56.31
3173.00,56.44
3172.00,56.61
3171.00,56.81
3170.00,57.01
3169.00,57.20
3168.00,57.35
3167.00,57.48
3166.00,57.58
3165.00,57.68
3164.00,57.80
3163.00,57.95
3162.00,58.14
3161.00,58.33
3160.00,58.52
3159.00,58.69
3158.00,58.86
3157.00,59.03
3156.00,59.19
3155.00,59.34
3154.00,59.47
3153.00,59.61
3152.00,59.77
3151.00,59.96
3150.00,60.16
3149.00,60.35
3148.00,60.52
3147.00,60.67
3146.00,60.81
3145.00,60.93
3144.00,61.07
3143.00,61.23
3142.00,61.41
3141.00,61.61
3140.00,61.83
3139.00,62.02
3138.00,62.19
3137.00,62.35
3136.00,62.52
3135.00,62.71
3134.00,62.92
3133.00,63.11
3132.00,63.29
3131.00,63.45
3130.00,63.60
3129.00,63.75
3128.00,63.88
3127.00,64.03
3126.00,64.20
3125.00,64.41
3124.00,64.63
3123.00,64.83
3122.00,64.98
3121.00,65.11
3120.00,65.25
3119.00,65.40
3118.00,65.56
3117.00,65.71
3116.00,65.87
3115.00,66.02
3114.00,66.18
3113.00,66.33
3112.00,66.48
3111.00,66.65
3110.00,66.83
3109.00,67.02
3108.00,67.21
3107.00,67.38
3106.00,67.55
3105.00,67.72
3104.00,67.90
3103.00,68.07
3102.00,68.24
3101.00,68.39
3100.00,68.54
3099.00,68.70
3098.00,68.89
3097.00,69.10
3096.00,69.30
3095.00,69.47
3094.00,69.61
3093.00,69.76
3092.00,69.93
3091.00,70.12
3090.00,70.31
3089.00,70.48
3088.00,70.62
3087.00,70.74
3086.00,70.86
3085.00,70.99
3084.00,71.13
3083.00,71.25
3082.00,71.34
3081.00,71.44
3080.00,71.58
3079.00,71.77
3078.00,71.98
3077.00,72.18
3076.00,72.34
3075.00,72.47
3074.00,72.59
3073.00,72.71
3072.00,72.86
3071.00,73.01
3070.00,73.16
3069.00,73.30
3068.00,73.43
3067.00,73.58
3066.00,73.73
3065.00,73.89
3064.00,74.05
3063.00,74.21
3062.00,74.39
3061.00,74.58
3060.00,74.76
3059.00,74.91
3058.00,75.04
3057.00,75.15
3056.00,75.27
3055.00,75.41
3054.00,75.55
3053.00,75.68
3052.00,75.81
3051.00,75.92
3050.00,76.03
3049.00,76.15
3048.00,76.28
3047.00,76.43
3046.00,76.59
3045.00,76.76
3044.00,76.91
3043.00,77.04
3042.00,77.15
3041.00,77.25
3040.00,77.36
3039.00,77.47
3038.00,77.58
3037.00,77.71
3036.00,77.85
3035.00,77.99
3034.00,78.12
3033.00,78.24
3032.00,78.35
3031.00,78.46
3030.00,78.54
3029.00,78.62
3028.00,78.73
3027.00,78.85
3026.00,78.99
3025.00,79.13
3024.00,79.26
3023.00,79.39
3022.00,79.52
3021.00,79.64
3020.00,79.76
3019.00,79.87
3018.00,79.97
3017.00,80.06
3016.00,80.16
3015.00,80.25
3014.00,80.36
3013.00,80.48
3012.00,80.59
3011.00,80.70
3010.00,80.81
3009.00,80.92
3008.00,81.03
3007.00,81.12
3006.00,81.19
3005.00,81.24
3004.00,81.31
3003.00,81.41
3002.00,81.56
3001.00,81.73
3000.00,81.88
2999.00,81.99
2998.00,82.03
2997.00,82.04
2996.00,82.08
2995.00,82.16
2994.00,82.29
2993.00,82.42
2992.00,82.53
2991.00,82.61
2990.00,82.68
2989.00,82.75
2988.00,82.83
2987.00,82.91
2986.00,83.00
2985.00,83.10
2984.00,83.18
2983.00,83.25
2982.00,83.31
2981.00,83.37
2980.00,83.44
2979.00,83.53
2978.00,83.62
2977.00,83.70
2976.00,83.78
2975.00,83.86
2974.00,83.94
2973.00,84.01
2972.00,84.06
2971.00,84.11
2970.00,84.17
2969.00,84.26
2968.00,84.35
2967.00,84.43
2966.00,84.52
2965.00,84.62
2964.00,84.72
2963.00,84.81
2962.00,84.88
2961.00,84.95
2960.00,85.00
2959.00,85.06
2958.00,85.12
2957.00,85.18
2956.00,85.25
2955.00,85.33
2954.00,85.40
2953.00,85.46
2952.00,85.52
2951.00,85.57
2950.00,85.62
2949.00,85.67
2948.00,85.72
2947.00,85.76
2946.00,85.81
2945.00,85.87
2944.00,85.96
2943.00,86.06
2942.00,86.15
2941.00,86.23
2940.00,86.29
2939.00,86.34
2938.00,86.40
2937.00,86.47
2936.00,86.54
2935.00,86.59
2934.00,86.62
2933.00,86.63
2932.00,86.63
2931.00,86.65
2930.00,86.70
2929.00,86.77
2928.00,86.85
2927.00,86.91
2926.00,86.96
2925.00,87.02
2924.00,87.09
2923.00,87.14
2922.00,87.19
2921.00,87.23
2920.00,87.27
2919.00,87.33
2918.00,87.38
2917.00,87.42
2916.00,87.48
2915.00,87.56
2914.00,87.64
2913.00,87.70
2912.00,87.73
2911.00,87.75
2910.00,87.79
2909.00,87.83
2908.00,87.88
2907.00,87.94
2906.00,87.99
2905.00,88.06
2904.00,88.14
2903.00,88.23
2902.00,88.32
2901.00,88.40
2900.00,88.47
2899.00,88.53
2898.00,88.57
2897.00,88.57
2896.00,88.55
2895.00,88.52
2894.00,88.52
2893.00,88.53
2892.00,88.58
2891.00,88.65
2890.00,88.73
2889.00,88.78
2888.00,88.82
2887.00,88.85
2886.00,88.88
2885.00,88.90
2884.00,88.91
2883.00,88.91
2882.00,88.93
2881.00,88.99
2880.00,89.08
2879.00,89.18
2878.00,89.25
2877.00,89.29
2876.00,89.32
2875.00,89.33
2874.00,89.35
2873.00,89.37
2872.00,89.39
2871.00,89.40
2870.00,89.41
2869.00,89.44
2868.00,89.48
2867.00,89.52
2866.00,89.56
2865.00,89.61
2864.00,89.64
2863.00,89.66
2862.00,89.69
2861.00,89.73
2860.00,89.80
2859.00,89.86
2858.00,89.89
2857.00,89.89
2856.00,89.88
2855.00,89.87
2854.00,89.88
2853.00,89.91
2852.00,89.96
2851.00,90.02
2850.00,90.08
2849.00,90.13
2848.00,90.16
2847.00,90.18
2846.00,90.20
2845.00,90.23
2844.00,90.27
2843.00,90.30
2842.00,90.32
2841.00,90.34
2840.00,90.37
2839.00,90.40
2838.00,90.43
2837.00,90.46
2836.00,90.47
2835.00,90.48
2834.00,90.49
2833.00,90.49
2832.00,90.50
2831.00,90.51
2830.00,90.54
2829.00,90.57
2828.00,90.60
2827.00,90.63
2826.00,90.67
2825.00,90.73
2824.00,90.79
2823.00,90.83
2822.00,90.83
2821.00,90.81
2820.00,90.80
2819.00,90.82
2818.00,90.85
2817.00,90.89
2816.00,90.92
2815.00,90.94
2814.00,90.96
2813.00,90.99
2812.00,91.02
2811.00,91.06
2810.00,91.09
2809.00,91.11
2808.00,91.13
2807.00,91.14
2806.00,91.15
2805.00,91.18
2804.00,91.22
2803.00,91.24
2802.00,91.22
2801.00,91.19
2800.00,91.16
2799.00,91.16
2798.00,91.17
2797.00,91.19
2796.00,91.22
2795.00,91.27
2794.00,91.31
2793.00,91.34
2792.00,91.37
2791.00,91.40
2790.00,91.45
2789.00,91.49
2788.00,91.50
2787.00,91.49
2786.00,91.47
2785.00,91.46
2784.00,91.46
2783.00,91.45
2782.00,91.44
2781.00,91.42
2780.00,91.43
2779.00,91.47
2778.00,91.51
2777.00,91.56
2776.00,91.59
2775.00,91.62
2774.00,91.66
2773.00,91.69
2772.00,91.71
2771.00,91.70
2770.00,91.68
2769.00,91.65
2768.00,91.63
2767.00,91.63
2766.00,91.66
2765.00,91.71
2764.00,91.76
2763.00,91.79
2762.00,91.82
2761.00,91.84
2760.00,91.85
2759.00,91.84
2758.00,91.83
2757.00,91.82
2756.00,91.83
2755.00,91.85
2754.00,91.87
2753.00,91.88
2752.00,91.90
2751.00,91.91
2750.00,91.91
2749.00,91.91
2748.00,91.90
2747.00,91.89
2746.00,91.90
2745.00,91.91
2744.00,91.91
2743.00,91.92
2742.00,91.94
2741.00,91.98
2740.00,92.02
2739.00,92.06
2738.00,92.10
2737.00,92.10
2736.00,92.08
2735.00,92.04
2734.00,92.01
2733.00,92.01
2732.00,92.02
2731.00,92.03
2730.00,92.05
2729.00,92.06
2728.00,92.07
2727.00,92.09
2726.00,92.10
2725.00,92.12
2724.00,92.12
2723.00,92.09
2722.00,92.05
2721.00,92.01
2720.00,91.99
2719.00,92.01
2718.00,92.06
2717.00,92.12
2716.00,92.17
2715.00,92.19
2714.00,92.19
2713.00,92.18
2712.00,92.17
2711.00,92.17
2710.00,92.19
2709.00,92.22
2708.00,92.25
2707.00,92.27
2706.00,92.28
2705.00,92.29
2704.00,92.28
2703.00,92.28
2702.00,92.27
2701.00,92.27
2700.00,92.28
2699.00,92.28
2698.00,92.27
2697.00,92.26
2696.00,92.26
2695.00,92.27
2694.00,92.30
2693.00,92.31
2692.00,92.30
2691.00,92.30
2690.00,92.31
2689.00,92.34
2688.00,92.35
2687.00,92.36
2686.00,92.34
2685.00,92.33
2684.00,92.32
2683.00,92.33
2682.00,92.34
2681.00,92.34
2680.00,92.33
2679.00,92.33
2678.00,92.33
2677.00,92.32
2676.00,92.32
2675.00,92.32
2674.00,92.33
2673.00,92.33
2672.00,92.33
2671.00,92.34
2670.00,92.35
2669.00,92.37
2668.00,92.38
2667.00,92.39
2666.00,92.38
2665.00,92.38
2664.00,92.37
2663.00,92.36
2662.00,92.36
2661.00,92.35
2660.00,92.35
2659.00,92.36
2658.00,92.38
2657.00,92.39
2656.00,92.37
2655.00,92.34
2654.00,92.31
2653.00,92.29
2652.00,92.30
2651.00,92.33
2650.00,92.35
2649.00,92.36
2648.00,92.35
2647.00,92.32
2646.00,92.29
2645.00,92.27
2644.00,92.26
2643.00,92.27
2642.00,92.30
2641.00,92.31
2640.00,92.32
2639.00,92.32
2638.00,92.34
2637.00,92.36
2636.00,92.35
2635.00,92.33
2634.00,92.29
2633.00,92.27
2632.00,92.27
2631.00,92.30
2630.00,92.33
2629.00,92.34
2628.00,92.31
2627.00,92.27
2626.00,92.25
2625.00,92.26
2624.00,92.27
2623.00,92.29
2622.00,92.30
2621.00,92.31
2620.00,92.30
2619.00,92.28
2618.00,92.24
2617.00,92.23
2616.00,92.26
2615.00,92.32
2614.00,92.35
2613.00,92.36
2612.00,92.34
2611.00,92.32
2610.00,92.33
2609.00,92.32
2608.00,92.31
2607.00,92.29
2606.00,92.29
2605.00,92.30
2604.00,92.29
2603.00,92.28
2602.00,92.26
2601.00,92.24
2600.00,92.24
2599.00,92.24
2598.00,92.23
2597.00,92.22
2596.00,92.23
2595.00,92.26
2594.00,92.28
2593.00,92.27
2592.00,92.24
2591.00,92.22
2590.00,92.23
2589.00,92.27
2588.00,92.29
2587.00,92.27
2586.00,92.23
2585.00,92.19
2584.00,92.19
2583.00,92.24
2582.00,92.30
2581.00,92.32
2580.00,92.29
2579.00,92.24
2578.00,92.19
2577.00,92.17
2576.00,92.19
2575.00,92.24
2574.00,92.28
2573.00,92.30
2572.00,92.28
2571.00,92.26
2570.00,92.26
2569.00,92.27
2568.00,92.30
2567.00,92.33
2566.00,92.37
2565.00,92.38
2564.00,92.38
2563.00,92.34
2562.00,92.29
2561.00,92.25
2560.00,92.24
2559.00,92.25
2558.00,92.24
2557.00,92.21
2556.00,92.17
2555.00,92.13
2554.00,92.10
2553.00,92.09
2552.00,92.10
2551.00,92.12
2550.00,92.15
2549.00,92.17
2548.00,92.20
2547.00,92.24
2546.00,92.28
2545.00,92.27
2544.00,92.23
2543.00,92.18
2542.00,92.13
2541.00,92.11
2540.00,92.11
2539.00,92.12
2538.00,92.13
2537.00,92.13
2536.00,92.13
2535.00,92.13
2534.00,92.14
2533.00,92.16
2532.00,92.17
2531.00,92.18
2530.00,92.20
2529.00,92.21
2528.00,92.21
2527.00,92.21
2526.00,92.21
2525.00,92.20
2524.00,92.18
2523.00,92.16
2522.00,92.15
2521.00,92.15
2520.00,92.14
2519.00,92.13
2518.00,92.12
2517.00,92.11
2516.00,92.11
2515.00,92.11
2514.00,92.12
2513.00,92.11
2512.00,92.10
2511.00,92.10
2510.00,92.13
2509.00,92.16
2508.00,92.18
2507.00,92.17
2506.00,92.15
2505.00,92.12
2504.00,92.12
2503.00,92.14
2502.00,92.15
2501.00,92.13
2500.00,92.08
2499.00,92.04
2498.00,92.04
2497.00,92.07
2496.00,92.09
2495.00,92.09
2494.00,92.09
2493.00,92.10
2492.00,92.13
2491.00,92.15
2490.00,92.14
2489.00,92.11
2488.00,92.07
2487.00,92.05
2486.00,92.07
2485.00,92.11
2484.00,92.13
2483.00,92.13
2482.00,92.10
2481.00,92.06
2480.00,92.02
2479.00,92.02
2478.00,92.05
2477.00,92.10
2476.00,92.13
2475.00,92.11
2474.00,92.06
2473.00,92.02
2472.00,91.99
2471.00,91.97
2470.00,91.96
2469.00,91.95
2468.00,91.95
2467.00,91.97
2466.00,91.98
2465.00,91.97
2464.00,91.94
2463.00,91.91
2462.00,91.91
2461.00,91.95
2460.00,92.00
2459.00,92.02
2458.00,92.01
2457.00,91.97
2456.00,91.92
2455.00,91.87
2454.00,91.86
2453.00,91.87
2452.00,91.88
2451.00,91.87
2450.00,91.85
2449.00,91.83
2448.00,91.82
2447.00,91.81
2446.00,91.79
2445.00,91.77
2444.00,91.76
2443.00,91.77
2442.00,91.79
2441.00,91.81
2440.00,91.83
2439.00,91.84
2438.00,91.87
2437.00,91.92
2436.00,91.96
2435.00,91.98
2434.00,91.96
2433.00,91.92
2432.00,91.87
2431.00,91.84
2430.00,91.83
2429.00,91.84
2428.00,91.86
2427.00,91.86
2426.00,91.84
2425.00,91.82
2424.00,91.81
2423.00,91.82
2422.00,91.83
2421.00,91.82
2420.00,91.80
2419.00,91.81
2418.00,91.82
2417.00,91.84
2416.00,91.83
2415.00,91.82
2414.00,91.82
2413.00,91.81
2412.00,91.78
2411.00,91.75
2410.00,91.72
2409.00,91.70
2408.00,91.70
2407.00,91.70
2406.00,91.71
2405.00,91.71
2404.00,91.72
2403.00,91.72
2402.00,91.72
2401.00,91.72
2400.00,91.71
2399.00,91.70
2398.00,91.67
2397.00,91.65
2396.00,91.62
2395.00,91.61
2394.00,91.64
2393.00,91.69
2392.00,91.74
2391.00,91.77
2390.00,91.77
2389.00,91.76
2388.00,91.73
2387.00,91.69
2386.00,91.66
2385.00,91.63
2384.00,91.62
2383.00,91.62
2382.00,91.61
2381.00,91.58
2380.00,91.53
2379.00,91.47
2378.00,91.38
2377.00,91.30
2376.00,91.25
2375.00,91.26
2374.00,91.30
2373.00,91.31
2372.00,91.30
2371.00,91.29
2370.00,91.30
2369.00,91.32
2368.00,91.30
2367.00,91.24
2366.00,91.15
2365.00,91.06
2364.00,90.97
2363.00,90.91
2362.00,90.87
2361.00,90.83
2360.00,90.79
2359.00,90.77
2358.00,90.78
2357.00,90.84
2356.00,90.91
2355.00,90.97
2354.00,91.03
2353.00,91.07
2352.00,91.09
2351.00,91.09
2350.00,91.05
2349.00,90.99
2348.00,90.90
2347.00,90.81
2346.00,90.71
2345.00,90.63
2344.00,90.56
2343.00,90.53
2342.00,90.52
2341.00,90.53
2340.00,90.56
2339.00,90.63
2338.00,90.75
2337.00,90.87
2336.00,90.95
2335.00,90.94
2334.00,90.89
2333.00,90.87
2332.00,90.91
2331.00,91.00
2330.00,91.07
2329.00,91.05
2328.00,90.94
2327.00,90.79
2326.00,90.65
2325.00,90.56
2324.00,90.54
2323.00,90.56
2322.00,90.58
2321.00,90.58
2320.00,90.59
2319.00,90.62
2318.00,90.67
2317.00,90.70
2316.00,90.70
2315.00,90.71
2314.00,90.75
2313.00,90.81
2312.00,90.87
2311.00,90.93
2310.00,90.96
2309.00,90.96
2308.00,90.91
2307.00,90.85
2306.00,90.79
2305.00,90.77
2304.00,90.78
2303.00,90.81
2302.00,90.83
2301.00,90.81
2300.00,90.78
2299.00,90.76
2298.00,90.76
2297.00,90.77
2296.00,90.77
2295.00,90.76
2294.00,90.73
2293.00,90.69
2292.00,90.65
2291.00,90.63
2290.00,90.64
2289.00,90.67
2288.00,90.70
2287.00,90.72
2286.00,90.73
2285.00,90.73
2284.00,90.71
2283.00,90.68
2282.00,90.63
2281.00,90.58
2280.00,90.54
2279.00,90.52
2278.00,90.50
2277.00,90.49
2276.00,90.49
2275.00,90.52
2274.00,90.56
2273.00,90.57
2272.00,90.54
2271.00,90.47
2270.00,90.40
2269.00,90.34
2268.00,90.34
2267.00,90.40
2266.00,90.46
2265.00,90.49
2264.00,90.48
2263.00,90.45
2262.00,90.41
2261.00,90.37
2260.00,90.34
2259.00,90.33
2258.00,90.31
2257.00,90.24
2256.00,90.12
2255.00,89.99
2254.00,89.92
2253.00,89.92
2252.00,89.98
2251.00,90.06
2250.00,90.13
2249.00,90.17
2248.00,90.19
2247.00,90.20
2246.00,90.18
2245.00,90.14
2244.00,90.09
2243.00,90.09
2242.00,90.14
2241.00,90.20
2240.00,90.20
2239.00,90.15
2238.00,90.09
2237.00,90.06
2236.00,90.05
2235.00,90.05
2234.00,90.02
2233.00,89.95
2232.00,89.83
2231.00,89.69
2230.00,89.59
2229.00,89.57
2228.00,89.60
2227.00,89.63
2226.00,89.66
2225.00,89.71
2224.00,89.78
2223.00,89.85
2222.00,89.87
2221.00,89.85
2220.00,89.81
2219.00,89.78
2218.00,89.77
2217.00,89.74
2216.00,89.70
2215.00,89.68
2214.00,89.70
2213.00,89.71
2212.00,89.69
2211.00,89.64
2210.00,89.60
2209.00,89.58
2208.00,89.60
2207.00,89.62
2206.00,89.62
2205.00,89.57
2204.00,89.49
2203.00,89.42
2202.00,89.39
2201.00,89.43
2200.00,89.51
2199.00,89.56
2198.00,89.54
2197.00,89.48
2196.00,89.42
2195.00,89.37
2194.00,89.32
2193.00,89.28
2192.00,89.25
2191.00,89.27
2190.00,89.32
2189.00,89.37
2188.00,89.38
2187.00,89.36
2186.00,89.36
2185.00,89.39
2184.00,89.43
2183.00,89.42
2182.00,89.35
2181.00,89.26
2180.00,89.21
2179.00,89.26
2178.00,89.36
2177.00,89.43
2176.00,89.46
2175.00,89.48
2174.00,89.51
2173.00,89.50
2172.00,89.40
2171.00,89.27
2170.00,89.18
2169.00,89.16
2168.00,89.15
2167.00,89.09
2166.00,88.97
2165.00,88.85
2164.00,88.78
2163.00,88.77
2162.00,88.75
2161.00,88.70
2160.00,88.70
2159.00,88.79
2158.00,88.93
2157.00,89.03
2156.00,89.07
2155.00,89.09
2154.00,89.14
2153.00,89.17
2152.00,89.17
2151.00,89.16
2150.00,89.17
2149.00,89.22
2148.00,89.29
2147.00,89.35
2146.00,89.34
2145.00,89.24
2144.00,89.08
2143.00,88.92
2142.00,88.83
2141.00,88.79
2140.00,88.77
2139.00,88.71
2138.00,88.65
2137.00,88.65
2136.00,88.74
2135.00,88.89
2134.00,89.05
2133.00,89.16
2132.00,89.23
2131.00,89.24
2130.00,89.21
2129.00,89.13
2128.00,89.03
2127.00,88.93
2126.00,88.86
2125.00,88.83
2124.00,88.85
2123.00,88.89
2122.00,88.93
2121.00,88.95
2120.00,88.97
2119.00,88.98
2118.00,88.99
2117.00,88.97
2116.00,88.91
2115.00,88.82
2114.00,88.76
2113.00,88.76
2112.00,88.80
2111.00,88.86
2110.00,88.90
2109.00,88.88
2108.00,88.84
2107.00,88.80
2106.00,88.78
2105.00,88.78
2104.00,88.81
2103.00,88.84
2102.00,88.83
2101.00,88.79
2100.00,88.75
2099.00,88.75
2098.00,88.81
2097.00,88.87
2096.00,88.90
2095.00,88.89
2094.00,88.87
2093.00,88.84
2092.00,88.85
2091.00,88.88
2090.00,88.94
2089.00,88.98
2088.00,88.98
2087.00,88.93
2086.00,88.87
2085.00,88.82
2084.00,88.80
2083.00,88.80
2082.00,88.80
2081.00,88.80
2080.00,88.79
2079.00,88.81
2078.00,88.84
2077.00,88.85
2076.00,88.86
2075.00,88.87
2074.00,88.89
2073.00,88.93
2072.00,88.96
2071.00,89.00
2070.00,89.05
2069.00,89.08
2068.00,89.08
2067.00,89.09
2066.00,89.13
2065.00,89.17
2064.00,89.18
2063.00,89.15
2062.00,89.11
2061.00,89.08
2060.00,89.08
2059.00,89.07
2058.00,89.04
2057.00,88.99
2056.00,88.96
2055.00,88.96
2054.00,88.96
2053.00,88.95
2052.00,88.92
2051.00,88.89
2050.00,88.88
2049.00,88.89
2048.00,88.93
2047.00,89.01
2046.00,89.13
2045.00,89.25
2044.00,89.32
2043.00,89.29
2042.00,89.18
2041.00,89.02
2040.00,88.90
2039.00,88.86
2038.00,88.88
2037.00,88.90
2036.00,88.93
2035.00,88.98
2034.00,89.04
2033.00,89.09
2032.00,89.14
2031.00,89.21
2030.00,89.30
2029.00,89.38
2028.00,89.43
2027.00,89.48
2026.00,89.52
2025.00,89.51
2024.00,89.48
2023.00,89.45
2022.00,89.46
2021.00,89.48
2020.00,89.54
2019.00,89.65
2018.00,89.78
2017.00,89.89
2016.00,89.92
2015.00,89.89
2014.00,89.84
2013.00,89.78
2012.00,89.72
2011.00,89.68
2010.00,89.65
2009.00,89.62
2008.00,89.63
2007.00,89.70
2006.00,89.82
2005.00,89.90
2004.00,89.92
2003.00,89.91
2002.00,89.92
2001.00,89.93
2000.00,89.92
1999.00,89.87
1998.00,89.81
1997.00,89.75
1996.00,89.74
1995.00,89.78
1994.00,89.84
1993.00,89.86
1992.00,89.82
1991.00,89.78
1990.00,89.75
1989.00,89.71
1988.00,89.66
1987.00,89.63
1986.00,89.65
1985.00,89.67
1984.00,89.67
1983.00,89.66
1982.00,89.64
1981.00,89.62
1980.00,89.59
1979.00,89.61
1978.00,89.71
1977.00,89.89
1976.00,90.08
1975.00,90.23
1974.00,90.27
1973.00,90.19
1972.00,90.05
1971.00,89.95
1970.00,89.93
1969.00,89.92
1968.00,89.92
1967.00,89.96
1966.00,90.07
1965.00,90.18
1964.00,90.22
1963.00,90.23
1962.00,90.25
1961.00,90.31
1960.00,90.37
1959.00,90.41
1958.00,90.42
1957.00,90.40
1956.00,90.36
1955.00,90.31
1954.00,90.30
1953.00,90.30
1952.00,90.31
1951.00,90.31
1950.00,90.32
1949.00,90.32
1948.00,90.28
1947.00,90.23
1946.00,90.20
1945.00,90.24
1944.00,90.34
1943.00,90.45
1942.00,90.52
1941.00,90.55
1940.00,90.55
1939.00,90.51
1938.00,90.47
1937.00,90.43
1936.00,90.41
1935.00,90.41
1934.00,90.42
1933.00,90.42
1932.00,90.44
1931.00,90.47
1930.00,90.49
1929.00,90.48
1928.00,90.45
1927.00,90.43
1926.00,90.42
1925.00,90.39
1924.00,90.36
1923.00,90.36
1922.00,90.36
1921.00,90.34
1920.00,90.28
1919.00,90.22
1918.00,90.21
1917.00,90.24
1916.00,90.32
1915.00,90.42
1914.00,90.54
1913.00,90.62
1912.00,90.64
1911.00,90.62
1910.00,90.57
1909.00,90.52
1908.00,90.50
1907.00,90.51
1906.00,90.53
1905.00,90.55
1904.00,90.56
1903.00,90.59
1902.00,90.66
1901.00,90.72
1900.00,90.73
1899.00,90.71
1898.00,90.68
1897.00,90.65
1896.00,90.62
1895.00,90.62
1894.00,90.64
1893.00,90.67
1892.00,90.68
1891.00,90.69
1890.00,90.68
1889.00,90.65
1888.00,90.61
1887.00,90.60
1886.00,90.60
1885.00,90.60
1884.00,90.59
1883.00,90.60
1882.00,90.62
1881.00,90.65
1880.00,90.66
1879.00,90.68
1878.00,90.70
1877.00,90.70
1876.00,90.67
1875.00,90.63
1874.00,90.60
1873.00,90.56
1872.00,90.51
1871.00,90.47
1870.00,90.44
1869.00,90.43
1868.00,90.46
1867.00,90.50
1866.00,90.54
1865.00,90.56
1864.00,90.58
1863.00,90.60
1862.00,90.62
1861.00,90.62
1860.00,90.60
1859.00,90.59
1858.00,90.60
1857.00,90.61
1856.00,90.63
1855.00,90.63
1854.00,90.62
1853.00,90.59
1852.00,90.56
1851.00,90.54
1850.00,90.53
1849.00,90.53
1848.00,90.53
1847.00,90.56
1846.00,90.60
1845.00,90.60
1844.00,90.55
1843.00,90.50
1842.00,90.49
1841.00,90.51
1840.00,90.53
1839.00,90.57
1838.00,90.62
1837.00,90.67
1836.00,90.67
1835.00,90.64
1834.00,90.59
1833.00,90.54
1832.00,90.49
1831.00,90.45
1830.00,90.45
1829.00,90.48
1828.00,90.50
1827.00,90.50
1826.00,90.49
1825.00,90.46
1824.00,90.43
1823.00,90.42
1822.00,90.44
1821.00,90.46
1820.00,90.48
1819.00,90.49
1818.00,90.49
1817.00,90.47
1816.00,90.46
1815.00,90.47
1814.00,90.50
1813.00,90.51
1812.00,90.48
1811.00,90.45
1810.00,90.42
1809.00,90.40
1808.00,90.38
1807.00,90.35
1806.00,90.33
1805.00,90.28
1804.00,90.23
1803.00,90.19
1802.00,90.19
1801.00,90.21
1800.00,90.22
1799.00,90.22
1798.00,90.22
1797.00,90.21
1796.00,90.19
1795.00,90.18
1794.00,90.16
1793.00,90.11
1792.00,90.07
1791.00,90.05
1790.00,90.08
1789.00,90.11
1788.00,90.12
1787.00,90.11
1786.00,90.09
1785.00,90.05
1784.00,90.02
1783.00,89.98
1782.00,89.95
1781.00,89.90
1780.00,89.84
1779.00,89.82
1778.00,89.83
1777.00,89.83
1776.00,89.80
1775.00,89.74
1774.00,89.65
1773.00,89.55
1772.00,89.47
1771.00,89.46
1770.00,89.50
1769.00,89.55
1768.00,89.56
1767.00,89.56
1766.00,89.55
1765.00,89.52
1764.00,89.47
1763.00,89.40
1762.00,89.34
1761.00,89.29
1760.00,89.22
1759.00,89.17
1758.00,89.13
1757.00,89.09
1756.00,89.03
1755.00,88.98
1754.00,88.94
1753.00,88.89
1752.00,88.81
1751.00,88.72
1750.00,88.64
1749.00,88.56
1748.00,88.48
1747.00,88.43
1746.00,88.40
1745.00,88.36
1744.00,88.31
1743.00,88.27
1742.00,88.25
1741.00,88.21
1740.00,88.11
1739.00,88.00
1738.00,87.94
1737.00,87.90
1736.00,87.83
1735.00,87.68
1734.00,87.48
1733.00,87.33
1732.00,87.24
1731.00,87.18
1730.00,87.12
1729.00,87.05
1728.00,86.96
1727.00,86.88
1726.00,86.80
1725.00,86.69
1724.00,86.55
1723.00,86.40
1722.00,86.29
1721.00,86.20
1720.00,86.09
1719.00,85.95
1718.00,85.74
1717.00,85.47
1716.00,85.22
1715.00,85.07
1714.00,84.98
1713.00,84.89
1712.00,84.77
1711.00,84.61
1710.00,84.44
1709.00,84.26
1708.00,84.07
1707.00,83.86
1706.00,83.62
1705.00,83.34
1704.00,83.12
1703.00,82.96
1702.00,82.83
1701.00,82.59
1700.00,82.19
1699.00,81.86
1698.00,81.68
1697.00,81.49
1696.00,81.18
1695.00,80.88
1694.00,80.70
1693.00,80.55
1692.00,80.37
1691.00,80.13
1690.00,79.84
1689.00,79.54
1688.00,79.26
1687.00,79.04
1686.00,78.82
1685.00,78.42
1684.00,77.77
1683.00,77.30
1682.00,77.12
1681.00,76.97
1680.00,76.76
1679.00,76.53
1678.00,76.32
1677.00,76.09
1676.00,75.74
1675.00,75.32
1674.00,74.98
1673.00,74.75
1672.00,74.54
1671.00,74.25
1670.00,73.87
1669.00,73.47
1668.00,73.13
1667.00,72.89
1666.00,72.71
1665.00,72.51
1664.00,72.21
1663.00,71.82
1662.00,71.46
1661.00,71.19
1660.00,70.96
1659.00,70.72
1658.00,70.51
1657.00,70.33
1656.00,70.17
1655.00,69.99
1654.00,69.66
1653.00,69.07
1652.00,68.63
1651.00,68.46
1650.00,68.39
1649.00,68.30
1648.00,68.08
1647.00,67.73
1646.00,67.46
1645.00,67.35
1644.00,67.27
1643.00,67.19
1642.00,67.13
1641.00,67.08
1640.00,67.01
1639.00,66.94
1638.00,66.88
1637.00,66.83
1636.00,66.76
1635.00,66.72
1634.00,66.77
1633.00,66.84
1632.00,66.90
1631.00,66.94
1630.00,67.01
1629.00,67.12
1628.00,67.26
1627.00,67.41
1626.00,67.58
1625.00,67.79
1624.00,68.01
1623.00,68.26
1622.00,68.50
1621.00,68.72
1620.00,68.90
1619.00,69.07
1618.00,69.30
1617.00,69.65
1616.00,70.05
1615.00,70.37
1614.00,70.64
1613.00,70.90
1612.00,71.15
1611.00,71.39
1610.00,71.65
1609.00,71.93
1608.00,72.24
1607.00,72.56
1606.00,72.86
1605.00,73.16
1604.00,73.44
1603.00,73.69
1602.00,73.94
1601.00,74.19
1600.00,74.44
1599.00,74.68
1598.00,74.91
1597.00,75.15
1596.00,75.38
1595.00,75.58
1594.00,75.76
1593.00,75.94
1592.00,76.11
1591.00,76.28
1590.00,76.45
1589.00,76.60
1588.00,76.77
1587.00,76.93
1586.00,77.11
1585.00,77.28
1584.00,77.44
1583.00,77.58
1582.00,77.71
1581.00,77.82
1580.00,77.93
1579.00,78.00
1578.00,78.05
1577.00,78.10
1576.00,78.21
1575.00,78.35
1574.00,78.48
1573.00,78.58
1572.00,78.69
1571.00,78.79
1570.00,78.87
1569.00,78.95
1568.00,79.02
1567.00,79.08
1566.00,79.12
1565.00,79.17
1564.00,79.21
1563.00,79.27
1562.00,79.34
1561.00,79.42
1560.00,79.46
1559.00,79.38
1558.00,79.28
1557.00,79.32
1556.00,79.41
1555.00,79.48
1554.00,79.54
1553.00,79.59
1552.00,79.65
1551.00,79.69
1550.00,79.73
1549.00,79.78
1548.00,79.83
1547.00,79.87
1546.00,79.87
1545.00,79.88
1544.00,79.90
1543.00,79.94
1542.00,79.96
1541.00,79.98
1540.00,80.08
1539.00,80.22
1538.00,80.33
1537.00,80.41
1536.00,80.49
1535.00,80.56
1534.00,80.63
1533.00,80.74
1532.00,80.85
1531.00,80.94
1530.00,81.01
1529.00,81.07
1528.00,81.14
1527.00,81.19
1526.00,81.22
1525.00,81.24
1524.00,81.26
1523.00,81.28
1522.00,81.31
1521.00,81.35
1520.00,81.42
1519.00,81.48
1518.00,81.53
1517.00,81.59
1516.00,81.70
1515.00,81.82
1514.00,81.92
1513.00,81.98
1512.00,82.01
1511.00,82.01
1510.00,82.00
1509.00,81.96
1508.00,81.91
1507.00,81.95
1506.00,82.11
1505.00,82.26
1504.00,82.35
1503.00,82.40
1502.00,82.43
1501.00,82.45
1500.00,82.46
1499.00,82.45
1498.00,82.44
1497.00,82.47
1496.00,82.54
1495.00,82.63
1494.00,82.70
1493.00,82.72
1492.00,82.71
1491.00,82.68
1490.00,82.65
1489.00,82.67
1488.00,82.71
1487.00,82.74
1486.00,82.76
1485.00,82.76
1484.00,82.77
1483.00,82.76
1482.00,82.75
1481.00,82.75
1480.00,82.76
1479.00,82.79
1478.00,82.81
1477.00,82.81
1476.00,82.77
1475.00,82.72
1474.00,82.67
1473.00,82.62
1472.00,82.62
1471.00,82.65
1470.00,82.70
1469.00,82.72
1468.00,82.72
1467.00,82.69
1466.00,82.65
1465.00,82.64
1464.00,82.66
1463.00,82.69
1462.00,82.71
1461.00,82.71
1460.00,82.68
1459.00,82.62
1458.00,82.54
1457.00,82.49
1456.00,82.54
1455.00,82.62
1454.00,82.69
1453.00,82.74
1452.00,82.77
1451.00,82.80
1450.00,82.82
1449.00,82.82
1448.00,82.81
1447.00,82.82
1446.00,82.83
1445.00,82.84
1444.00,82.86
1443.00,82.87
1442.00,82.88
1441.00,82.90
1440.00,82.91
1439.00,82.91
1438.00,82.91
1437.00,82.89
1436.00,82.89
1435.00,82.89
1434.00,82.90
1433.00,82.90
1432.00,82.90
1431.00,82.90
1430.00,82.89
1429.00,82.88
1428.00,82.88
1427.00,82.88
1426.00,82.88
1425.00,82.85
1424.00,82.81
1423.00,82.79
1422.00,82.79
1421.00,82.79
1420.00,82.75
1419.00,82.66
1418.00,82.57
1417.00,82.52
1416.00,82.52
1415.00,82.52
1414.00,82.51
1413.00,82.50
1412.00,82.49
1411.00,82.48
1410.00,82.48
1409.00,82.50
1408.00,82.51
1407.00,82.51
1406.00,82.51
1405.00,82.51
1404.00,82.55
1403.00,82.61
1402.00,82.66
1401.00,82.69
1400.00,82.70
1399.00,82.69
1398.00,82.69
1397.00,82.70
1396.00,82.71
1395.00,82.73
1394.00,82.77
1393.00,82.82
1392.00,82.88
1391.00,82.93
1390.00,82.97
1389.00,82.99
1388.00,83.00
1387.00,83.00
1386.00,83.00
1385.00,83.02
1384.00,83.04
1383.00,83.05
1382.00,83.05
1381.00,83.04
1380.00,83.04
1379.00,83.04
1378.00,83.04
1377.00,83.05
1376.00,83.05
1375.00,83.04
1374.00,83.03
1373.00,83.03
1372.00,83.04
1371.00,83.06
1370.00,83.06
1369.00,83.07
1368.00,83.07
1367.00,83.09
1366.00,83.12
1365.00,83.12
1364.00,83.10
1363.00,83.05
1362.00,83.00
1361.00,83.00
1360.00,83.04
1359.00,83.09
1358.00,83.12
1357.00,83.12
1356.00,83.12
1355.00,83.11
1354.00,83.10
1353.00,83.10
1352.00,83.11
1351.00,83.12
1350.00,83.12
1349.00,83.11
1348.00,83.11
1347.00,83.12
1346.00,83.13
1345.00,83.15
1344.00,83.17
1343.00,83.18
1342.00,83.19
1341.00,83.19
1340.00,83.17
1339.00,83.17
1338.00,83.18
1337.00,83.19
1336.00,83.20
1335.00,83.21
1334.00,83.23
1333.00,83.23
1332.00,83.24
1331.00,83.25
1330.00,83.26
1329.00,83.28
1328.00,83.30
1327.00,83.32
1326.00,83.32
1325.00,83.32
1324.00,83.31
1323.00,83.30
1322.00,83.28
1321.00,83.27
1320.00,83.24
1319.00,83.22
1318.00,83.21
1317.00,83.22
1316.00,83.25
1315.00,83.27
1314.00,83.29
1313.00,83.29
1312.00,83.28
1311.00,83.28
1310.00,83.30
1309.00,83.31
1308.00,83.32
1307.00,83.32
1306.00,83.32
1305.00,83.32
1304.00,83.32
1303.00,83.34
1302.00,83.36
1301.00,83.37
1300.00,83.37
1299.00,83.38
1298.00,83.39
1297.00,83.40
1296.00,83.41
1295.00,83.42
1294.00,83.42
1293.00,83.41
1292.00,83.41
1291.00,83.42
1290.00,83.44
1289.00,83.45
1288.00,83.46
1287.00,83.46
1286.00,83.47
1285.00,83.49
1284.00,83.50
1283.00,83.50
1282.00,83.49
1281.00,83.48
1280.00,83.48
1279.00,83.50
1278.00,83.51
1277.00,83.52
1276.00,83.52
1275.00,83.51
1274.00,83.51
1273.00,83.51
1272.00,83.50
1271.00,83.50
1270.00,83.49
1269.00,83.48
1268.00,83.48
1267.00,83.48
1266.00,83.49
1265.00,83.50
1264.00,83.49
1263.00,83.48
1262.00,83.46
1261.00,83.45
1260.00,83.43
1259.00,83.42
1258.00,83.40
1257.00,83.38
1256.00,83.36
1255.00,83.34
1254.00,83.32
1253.00,83.30
1252.00,83.28
1251.00,83.25
1250.00,83.23
1249.00,83.21
1248.00,83.18
1247.00,83.15
1246.00,83.10
1245.00,83.06
1244.00,83.04
1243.00,83.04
1242.00,83.06
1241.00,83.08
1240.00,83.09
1239.00,83.07
1238.00,83.05
1237.00,83.03
1236.00,83.03
1235.00,83.06
1234.00,83.09
1233.00,83.12
1232.00,83.14
1231.00,83.15
1230.00,83.16
1229.00,83.17
1228.00,83.17
1227.00,83.18
1226.00,83.19
1225.00,83.21
1224.00,83.21
1223.00,83.21
1222.00,83.21
1221.00,83.21
1220.00,83.22
1219.00,83.23
1218.00,83.25
1217.00,83.26
1216.00,83.27
1215.00,83.28
1214.00,83.27
1213.00,83.27
1212.00,83.27
1211.00,83.29
1210.00,83.29
1209.00,83.29
1208.00,83.29
1207.00,83.29
1206.00,83.30
1205.00,83.30
1204.00,83.32
1203.00,83.33
1202.00,83.35
1201.00,83.35
1200.00,83.36
1199.00,83.36
1198.00,83.37
1197.00,83.37
1196.00,83.37
1195.00,83.36
1194.00,83.34
1193.00,83.33
1192.00,83.34
1191.00,83.36
1190.00,83.38
1189.00,83.38
1188.00,83.38
1187.00,83.37
1186.00,83.36
1185.00,83.36
1184.00,83.35
1183.00,83.35
1182.00,83.35
1181.00,83.35
1180.00,83.36
1179.00,83.37
1178.00,83.38
1177.00,83.38
1176.00,83.37
1175.00,83.35
1174.00,83.32
1173.00,83.28
1172.00,83.27
1171.00,83.27
1170.00,83.28
1169.00,83.30
1168.00,83.31
1167.00,83.30
1166.00,83.29
1165.00,83.28
1164.00,83.26
1163.00,83.24
1162.00,83.23
1161.00,83.23
1160.00,83.24
1159.00,83.25
1158.00,83.25
1157.00,83.23
1156.00,83.20
1155.00,83.18
1154.00,83.18
1153.00,83.19
1152.00,83.18
1151.00,83.16
1150.00,83.13
1149.00,83.11
1148.00,83.10
1147.00,83.10
1146.00,83.11
1145.00,83.11
1144.00,83.11
1143.00,83.11
1142.00,83.10
1141.00,83.09
1140.00,83.10
1139.00,83.12
1138.00,83.13
1137.00,83.12
1136.00,83.10
1135.00,83.08
1134.00,83.08
1133.00,83.06
1132.00,83.04
1131.00,83.01
1130.00,82.98
1129.00,82.96
1128.00,82.95
1127.00,82.95
1126.00,82.96
1125.00,82.96
1124.00,82.96
1123.00,82.93
1122.00,82.90
1121.00,82.86
1120.00,82.83
1119.00,82.82
1118.00,82.81
1117.00,82.82
1116.00,82.83
1115.00,82.84
1114.00,82.84
1113.00,82.84
1112.00,82.83
1111.00,82.82
1110.00,82.79
1109.00,82.74
1108.00,82.71
1107.00,82.72
1106.00,82.75
1105.00,82.78
1104.00,82.79
1103.00,82.77
1102.00,82.74
1101.00,82.71
1100.00,82.70
1099.00,82.71
1098.00,82.72
1097.00,82.71
1096.00,82.68
1095.00,82.65
1094.00,82.62
1093.00,82.59
1092.00,82.58
1091.00,82.57
1090.00,82.57
1089.00,82.57
1088.00,82.58
1087.00,82.60
1086.00,82.60
1085.00,82.58
1084.00,82.52
1083.00,82.46
1082.00,82.41
1081.00,82.40
1080.00,82.42
1079.00,82.45
1078.00,82.46
1077.00,82.44
1076.00,82.39
1075.00,82.35
1074.00,82.33
1073.00,82.32
1072.00,82.30
1071.00,82.28
1070.00,82.27
1069.00,82.27
1068.00,82.27
1067.00,82.29
1066.00,82.32
1065.00,82.34
1064.00,82.34
1063.00,82.32
1062.00,82.28
1061.00,82.25
1060.00,82.20
1059.00,82.15
1058.00,82.11
1057.00,82.09
1056.00,82.09
1055.00,82.08
1054.00,82.07
1053.00,82.04
1052.00,82.01
1051.00,82.00
1050.00,82.00
1049.00,82.00
1048.00,82.00
1047.00,81.98
1046.00,81.96
1045.00,81.95
1044.00,81.96
1043.00,81.99
1042.00,82.02
1041.00,82.01
1040.00,81.95
1039.00,81.90
1038.00,81.87
1037.00,81.87
1036.00,81.87
1035.00,81.85
1034.00,81.83
1033.00,81.82
1032.00,81.83
1031.00,81.83
1030.00,81.81
1029.00,81.77
1028.00,81.73
1027.00,81.71
1026.00,81.73
1025.00,81.74
1024.00,81.72
1023.00,81.66
1022.00,81.58
1021.00,81.52
1020.00,81.52
1019.00,81.56
1018.00,81.62
1017.00,81.64
1016.00,81.61
1015.00,81.56
1014.00,81.52
1013.00,81.52
1012.00,81.52
1011.00,81.51
1010.00,81.46
1009.00,81.40
1008.00,81.33
1007.00,81.28
1006.00,81.26
1005.00,81.25
1004.00,81.26
1003.00,81.26
1002.00,81.24
1001.00,81.22
1000.00,81.20
999.00,81.18
998.00,81.15
997.00,81.10
996.00,81.05
995.00,81.01
994.00,80.98
993.00,80.95
992.00,80.90
991.00,80.86
990.00,80.84
989.00,80.84
988.00,80.83
987.00,80.80
986.00,80.76
985.00,80.71
984.00,80.65
983.00,80.59
982.00,80.52
981.00,80.47
980.00,80.44
979.00,80.45
978.00,80.46
977.00,80.45
976.00,80.39
975.00,80.32
974.00,80.25
973.00,80.21
972.00,80.18
971.00,80.15
970.00,80.12
969.00,80.07
968.00,79.99
967.00,79.91
966.00,79.85
965.00,79.83
964.00,79.82
963.00,79.80
962.00,79.76
961.00,79.68
960.00,79.57
959.00,79.47
958.00,79.41
957.00,79.39
956.00,79.39
955.00,79.37
954.00,79.33
953.00,79.26
952.00,79.18
951.00,79.11
950.00,79.05
949.00,79.01
948.00,78.97
947.00,78.93
946.00,78.90
945.00,78.86
944.00,78.79
943.00,78.71
942.00,78.60
941.00,78.49
940.00,78.39
939.00,78.30
938.00,78.23
937.00,78.18
936.00,78.13
935.00,78.08
934.00,78.01
933.00,77.91
932.00,77.80
931.00,77.71
930.00,77.63
929.00,77.54
928.00,77.43
927.00,77.32
926.00,77.26
925.00,77.24
924.00,77.23
923.00,77.19
922.00,77.10
921.00,76.97
920.00,76.83
919.00,76.71
918.00,76.60
917.00,76.49
916.00,76.37
915.00,76.23
914.00,76.07
913.00,75.92
912.00,75.81
911.00,75.74
910.00,75.68
909.00,75.61
908.00,75.53
907.00,75.45
906.00,75.36
905.00,75.24
904.00,75.09
903.00,74.92
902.00,74.75
901.00,74.60
900.00,74.48
899.00,74.38
898.00,74.29
897.00,74.20
896.00,74.09
895.00,73.97
894.00,73.83
893.00,73.70
892.00,73.57
891.00,73.44
890.00,73.30
889.00,73.14
888.00,72.96
887.00,72.80
886.00,72.67
885.00,72.58
884.00,72.51
883.00,72.43
882.00,72.34
881.00,72.20
880.00,72.02
879.00,71.83
878.00,71.64
877.00,71.45
876.00,71.29
875.00,71.16
874.00,71.05
873.00,70.93
872.00,70.77
871.00,70.60
870.00,70.43
869.00,70.27
868.00,70.13
867.00,70.01
866.00,69.93
865.00,69.82
864.00,69.69
863.00,69.54
862.00,69.38
861.00,69.22
860.00,69.07
859.00,68.93
858.00,68.81
857.00,68.69
856.00,68.56
855.00,68.41
854.00,68.27
853.00,68.13
852.00,68.00
851.00,67.89
850.00,67.78
849.00,67.65
848.00,67.48
847.00,67.28
846.00,67.07
845.00,66.85
844.00,66.66
843.00,66.54
842.00,66.45
841.00,66.37
840.00,66.26
839.00,66.13
838.00,65.97
837.00,65.79
836.00,65.61
835.00,65.46
834.00,65.31
833.00,65.16
832.00,65.00
831.00,64.85
830.00,64.73
829.00,64.59
828.00,64.42
827.00,64.24
826.00,64.08
825.00,63.92
824.00,63.79
823.00,63.68
822.00,63.56
821.00,63.43
820.00,63.27
819.00,63.11
818.00,62.97
817.00,62.81
816.00,62.64
815.00,62.51
814.00,62.40
813.00,62.29
812.00,62.16
811.00,62.03
810.00,61.88
809.00,61.70
808.00,61.51
807.00,61.36
806.00,61.26
805.00,61.16
804.00,61.02
803.00,60.86
802.00,60.69
801.00,60.53
800.00,60.37
799.00,60.24
798.00,60.14
797.00,60.03
796.00,59.90
795.00,59.79
794.00,59.71
793.00,59.62
792.00,59.48
791.00,59.33
790.00,59.19
789.00,59.07
788.00,58.96
787.00,58.85
786.00,58.73
785.00,58.58
784.00,58.40
783.00,58.23
782.00,58.09
781.00,57.96
780.00,57.83
779.00,57.72
778.00,57.63
777.00,57.53
776.00,57.40
775.00,57.26
774.00,57.11
773.00,56.96
772.00,56.80
771.00,56.68
770.00,56.58
769.00,56.46
768.00,56.29
767.00,56.11
766.00,55.98
765.00,55.89
764.00,55.83
763.00,55.78
762.00,55.72
761.00,55.60
760.00,55.45
759.00,55.32
758.00,55.23
757.00,55.15
756.00,55.05
755.00,54.94
754.00,54.86
753.00,54.75
752.00,54.61
751.00,54.46
750.00,54.31
749.00,54.14
748.00,53.95
747.00,53.76
746.00,53.62
745.00,53.51
744.00,53.43
743.00,53.38
742.00,53.35
741.00,53.30
740.00,53.21
739.00,53.11
738.00,53.02
737.00,52.91
736.00,52.76
735.00,52.62
734.00,52.51
733.00,52.41
732.00,52.33
731.00,52.28
730.00,52.24
729.00,52.17
728.00,52.06
727.00,51.95
726.00,51.88
725.00,51.80
724.00,51.68
723.00,51.55
722.00,51.44
721.00,51.33
720.00,51.18
719.00,51.02
718.00,50.90
717.00,50.81
716.00,50.74
715.00,50.66
714.00,50.57
713.00,50.47
712.00,50.39
711.00,50.35
710.00,50.36
709.00,50.32
708.00,50.22
707.00,50.07
706.00,49.92
705.00,49.79
704.00,49.69
703.00,49.61
702.00,49.56
701.00,49.47
700.00,49.33
699.00,49.21
698.00,49.15
697.00,49.13
696.00,49.11
695.00,49.10
694.00,49.05
693.00,48.96
692.00,48.84
691.00,48.77
690.00,48.77
689.00,48.74
688.00,48.62
687.00,48.47
686.00,48.35
685.00,48.28
684.00,48.22
683.00,48.19
682.00,48.14
681.00,48.03
680.00,47.86
679.00,47.71
678.00,47.66
677.00,47.62
676.00,47.55
675.00,47.47
674.00,47.42
673.00,47.39
672.00,47.32
671.00,47.21
670.00,47.05
669.00,46.78
668.00,46.46
667.00,46.35
666.00,46.47
665.00,46.62
664.00,46.69
663.00,46.70
662.00,46.65
661.00,46.57
660.00,46.45
659.00,46.37
658.00,46.32
657.00,46.26
656.00,46.16
655.00,46.07
654.00,46.02
653.00,45.97
652.00,45.88
651.00,45.81
650.00,45.79
649.00,45.81
648.00,45.84
647.00,45.92
646.00,46.01
645.00,46.00
644.00,45.87
643.00,45.73
642.00,45.69
641.00,45.69
640.00,45.69
639.00,45.67
638.00,45.60
637.00,45.41
636.00,45.18
635.00,45.11
634.00,45.26
633.00,45.41
632.00,45.40
631.00,45.30
630.00,45.20
629.00,45.07
628.00,44.89
627.00,44.78
626.00,44.76
625.00,44.66
624.00,44.45
623.00,44.35
622.00,44.49
621.00,44.69
620.00,44.73
619.00,44.71
618.00,44.77
617.00,44.74
616.00,44.49
615.00,44.18
614.00,43.98
613.00,43.81
612.00,43.66
611.00,43.67
610.00,43.91
609.00,44.18
608.00,44.41
607.00,44.76
606.00,45.20
605.00,45.45
604.00,45.37
603.00,45.18
602.00,45.06
601.00,44.89
600.00,44.57
599.00,44.30
598.00,44.19
597.00,44.09
596.00,43.93
595.00,43.95
594.00,44.36
593.00,44.89
592.00,45.15
591.00,45.06
590.00,44.80
589.00,44.40
588.00,43.89
587.00,43.52
586.00,43.45
585.00,43.48
584.00,43.41
583.00,43.35
582.00,43.41
581.00,43.46
580.00,43.48
579.00,43.87
578.00,44.71
577.00,45.45
576.00,45.64
575.00,45.54
574.00,45.54
573.00,45.47
572.00,45.08
571.00,44.46
570.00,43.81
569.00,43.20
568.00,42.92
567.00,43.41
566.00,44.36
565.00,44.79
564.00,44.38
563.00,43.82
562.00,43.76
561.00,43.95
560.00,44.02
559.00,44.23
558.00,44.79
557.00,45.20
556.00,44.93
555.00,44.05
554.00,42.92
553.00,41.67
552.00,40.59
551.00,40.37
550.00,41.26
