Created as New Dataset,Sample 000 By Administrator Date Tuesday, December 15 2020
cm-1,%T
4000.00,96.28
3999.00,96.25
3998.00,96.20
3997.00,96.17
3996.00,96.15
3995.00,96.16
3994.00,96.18
3993.00,96.20
3992.00,96.21
3991.00,96.25
3990.00,96.30
3989.00,96.36
3988.00,96.40
3987.00,96.41
3986.00,96.38
3985.00,96.35
3984.00,96.33
3983.00,96.30
3982.00,96.25
3981.00,96.19
3980.00,96.14
3979.00,96.14
3978.00,96.19
3977.00,96.26
3976.00,96.33
3975.00,96.35
3974.00,96.34
3973.00,96.31
3972.00,96.32
3971.00,96.36
3970.00,96.42
3969.00,96.47
3968.00,96.51
3967.00,96.52
3966.00,96.50
3965.00,96.42
3964.00,96.29
3963.00,96.14
3962.00,96.03
3961.00,96.01
3960.00,96.06
3959.00,96.14
3958.00,96.19
3957.00,96.19
3956.00,96.16
3955.00,96.16
3954.00,96.19
3953.00,96.25
3952.00,96.32
3951.00,96.37
3950.00,96.39
3949.00,96.38
3948.00,96.37
3947.00,96.36
3946.00,96.36
3945.00,96.35
3944.00,96.33
3943.00,96.31
3942.00,96.30
3941.00,96.30
3940.00,96.31
3939.00,96.30
3938.00,96.24
3937.00,96.17
3936.00,96.11
3935.00,96.08
3934.00,96.08
3933.00,96.10
3932.00,96.11
3931.00,96.10
3930.00,96.09
3929.00,96.10
3928.00,96.14
3927.00,96.21
3926.00,96.27
3925.00,96.31
3924.00,96.33
3923.00,96.34
3922.00,96.36
3921.00,96.40
3920.00,96.44
3919.00,96.47
3918.00,96.45
3917.00,96.39
3916.00,96.33
3915.00,96.29
3914.00,96.28
3913.00,96.30
3912.00,96.34
3911.00,96.36
3910.00,96.34
3909.00,96.29
3908.00,96.24
3907.00,96.25
3906.00,96.33
3905.00,96.46
3904.00,96.54
3903.00,96.51
3902.00,96.38
3901.00,96.25
3900.00,96.16
3899.00,96.12
3898.00,96.11
3897.00,96.10
3896.00,96.10
3895.00,96.10
3894.00,96.10
3893.00,96.10
3892.00,96.12
3891.00,96.15
3890.00,96.18
3889.00,96.23
3888.00,96.27
3887.00,96.31
3886.00,96.32
3885.00,96.30
3884.00,96.28
3883.00,96.28
3882.00,96.29
3881.00,96.31
3880.00,96.33
3879.00,96.34
3878.00,96.34
3877.00,96.34
3876.00,96.35
3875.00,96.35
3874.00,96.34
3873.00,96.33
3872.00,96.34
3871.00,96.39
3870.00,96.44
3869.00,96.45
3868.00,96.44
3867.00,96.43
3866.00,96.45
3865.00,96.48
3864.00,96.46
3863.00,96.39
3862.00,96.29
3861.00,96.21
3860.00,96.17
3859.00,96.17
3858.00,96.18
3857.00,96.24
3856.00,96.38
3855.00,96.61
3854.00,96.79
3853.00,96.74
3852.00,96.51
3851.00,96.29
3850.00,96.16
3849.00,96.10
3848.00,96.11
3847.00,96.14
3846.00,96.18
3845.00,96.22
3844.00,96.26
3843.00,96.29
3842.00,96.33
3841.00,96.37
3840.00,96.40
3839.00,96.40
3838.00,96.38
3837.00,96.37
3836.00,96.37
3835.00,96.38
3834.00,96.37
3833.00,96.36
3832.00,96.33
3831.00,96.32
3830.00,96.33
3829.00,96.32
3828.00,96.26
3827.00,96.16
3826.00,96.06
3825.00,96.02
3824.00,96.08
3823.00,96.22
3822.00,96.38
3821.00,96.46
3820.00,96.42
3819.00,96.36
3818.00,96.33
3817.00,96.36
3816.00,96.40
3815.00,96.42
3814.00,96.40
3813.00,96.36
3812.00,96.33
3811.00,96.31
3810.00,96.29
3809.00,96.27
3808.00,96.23
3807.00,96.15
3806.00,96.09
3805.00,96.06
3804.00,96.08
3803.00,96.12
3802.00,96.16
3801.00,96.18
3800.00,96.20
3799.00,96.22
3798.00,96.25
3797.00,96.25
3796.00,96.22
3795.00,96.17
3794.00,96.13
3793.00,96.12
3792.00,96.13
3791.00,96.14
3790.00,96.12
3789.00,96.09
3788.00,96.06
3787.00,96.06
3786.00,96.09
3785.00,96.10
3784.00,96.08
3783.00,96.02
3782.00,95.98
3781.00,96.01
3780.00,96.12
3779.00,96.27
3778.00,96.38
3777.00,96.40
3776.00,96.35
3775.00,96.25
3774.00,96.15
3773.00,96.10
3772.00,96.13
3771.00,96.25
3770.00,96.39
3769.00,96.43
3768.00,96.36
3767.00,96.20
3766.00,96.06
3765.00,95.99
3764.00,96.01
3763.00,96.07
3762.00,96.11
3761.00,96.10
3760.00,96.06
3759.00,96.03
3758.00,96.03
3757.00,96.06
3756.00,96.11
3755.00,96.16
3754.00,96.21
3753.00,96.28
3752.00,96.31
3751.00,96.21
3750.00,96.00
3749.00,95.79
3748.00,95.67
3747.00,95.64
3746.00,95.68
3745.00,95.72
3744.00,95.71
3743.00,95.66
3742.00,95.61
3741.00,95.56
3740.00,95.52
3739.00,95.47
3738.00,95.44
3737.00,95.45
3736.00,95.52
3735.00,95.60
3734.00,95.65
3733.00,95.64
3732.00,95.62
3731.00,95.59
3730.00,95.58
3729.00,95.58
3728.00,95.61
3727.00,95.68
3726.00,95.75
3725.00,95.80
3724.00,95.80
3723.00,95.77
3722.00,95.73
3721.00,95.68
3720.00,95.60
3719.00,95.51
3718.00,95.42
3717.00,95.34
3716.00,95.28
3715.00,95.24
3714.00,95.25
3713.00,95.30
3712.00,95.36
3711.00,95.38
3710.00,95.34
3709.00,95.26
3708.00,95.15
3707.00,95.05
3706.00,94.97
3705.00,94.92
3704.00,94.92
3703.00,94.94
3702.00,94.94
3701.00,94.88
3700.00,94.78
3699.00,94.67
3698.00,94.57
3697.00,94.47
3696.00,94.40
3695.00,94.35
3694.00,94.33
3693.00,94.34
3692.00,94.34
3691.00,94.29
3690.00,94.12
3689.00,93.84
3688.00,93.54
3687.00,93.31
3686.00,93.17
3685.00,93.11
3684.00,93.07
3683.00,93.02
3682.00,92.93
3681.00,92.80
3680.00,92.66
3679.00,92.52
3678.00,92.42
3677.00,92.36
3676.00,92.29
3675.00,92.18
3674.00,92.03
3673.00,91.87
3672.00,91.68
3671.00,91.47
3670.00,91.27
3669.00,91.12
3668.00,91.01
3667.00,90.89
3666.00,90.75
3665.00,90.58
3664.00,90.40
3663.00,90.23
3662.00,90.06
3661.00,89.90
3660.00,89.75
3659.00,89.60
3658.00,89.40
3657.00,89.15
3656.00,88.93
3655.00,88.80
3654.00,88.75
3653.00,88.74
3652.00,88.67
3651.00,88.44
3650.00,88.05
3649.00,87.65
3648.00,87.39
3647.00,87.26
3646.00,87.16
3645.00,87.06
3644.00,86.92
3643.00,86.75
3642.00,86.59
3641.00,86.44
3640.00,86.33
3639.00,86.22
3638.00,86.12
3637.00,86.01
3636.00,85.90
3635.00,85.75
3634.00,85.58
3633.00,85.41
3632.00,85.28
3631.00,85.16
3630.00,84.97
3629.00,84.68
3628.00,84.42
3627.00,84.28
3626.00,84.23
3625.00,84.19
3624.00,84.15
3623.00,84.09
3622.00,83.99
3621.00,83.83
3620.00,83.62
3619.00,83.42
3618.00,83.26
3617.00,83.14
3616.00,83.01
3615.00,82.84
3614.00,82.64
3613.00,82.44
3612.00,82.27
3611.00,82.15
3610.00,82.06
3609.00,81.95
3608.00,81.80
3607.00,81.62
3606.00,81.45
3605.00,81.32
3604.00,81.23
3603.00,81.17
3602.00,81.12
3601.00,81.02
3600.00,80.86
3599.00,80.68
3598.00,80.48
3597.00,80.28
3596.00,80.06
3595.00,79.84
3594.00,79.66
3593.00,79.54
3592.00,79.45
3591.00,79.37
3590.00,79.28
3589.00,79.21
3588.00,79.11
3587.00,78.94
3586.00,78.70
3585.00,78.44
3584.00,78.21
3583.00,78.02
3582.00,77.89
3581.00,77.81
3580.00,77.78
3579.00,77.75
3578.00,77.68
3577.00,77.55
3576.00,77.36
3575.00,77.17
3574.00,77.03
3573.00,76.96
3572.00,76.93
3571.00,76.89
3570.00,76.82
3569.00,76.68
3568.00,76.44
3567.00,76.09
3566.00,75.75
3565.00,75.52
3564.00,75.41
3563.00,75.36
3562.00,75.30
3561.00,75.19
3560.00,75.04
3559.00,74.86
3558.00,74.67
3557.00,74.51
3556.00,74.39
3555.00,74.31
3554.00,74.20
3553.00,74.06
3552.00,73.90
3551.00,73.76
3550.00,73.66
3549.00,73.55
3548.00,73.38
3547.00,73.15
3546.00,72.88
3545.00,72.64
3544.00,72.47
3543.00,72.37
3542.00,72.29
3541.00,72.19
3540.00,72.04
3539.00,71.86
3538.00,71.70
3537.00,71.58
3536.00,71.48
3535.00,71.37
3534.00,71.23
3533.00,71.07
3532.00,70.89
3531.00,70.71
3530.00,70.54
3529.00,70.39
3528.00,70.23
3527.00,70.07
3526.00,69.88
3525.00,69.68
3524.00,69.49
3523.00,69.33
3522.00,69.20
3521.00,69.07
3520.00,68.90
3519.00,68.68
3518.00,68.46
3517.00,68.27
3516.00,68.14
3515.00,68.06
3514.00,67.99
3513.00,67.90
3512.00,67.77
3511.00,67.59
3510.00,67.35
3509.00,67.11
3508.00,66.91
3507.00,66.77
3506.00,66.67
3505.00,66.54
3504.00,66.38
3503.00,66.21
3502.00,66.07
3501.00,65.96
3500.00,65.85
3499.00,65.72
3498.00,65.57
3497.00,65.41
3496.00,65.26
3495.00,65.13
3494.00,64.97
3493.00,64.79
3492.00,64.59
3491.00,64.41
3490.00,64.24
3489.00,64.07
3488.00,63.91
3487.00,63.77
3486.00,63.67
3485.00,63.60
3484.00,63.57
3483.00,63.53
3482.00,63.42
3481.00,63.21
3480.00,62.93
3479.00,62.66
3478.00,62.46
3477.00,62.33
3476.00,62.22
3475.00,62.12
3474.00,62.00
3473.00,61.87
3472.00,61.74
3471.00,61.59
3470.00,61.42
3469.00,61.24
3468.00,61.06
3467.00,60.88
3466.00,60.71
3465.00,60.55
3464.00,60.41
3463.00,60.27
3462.00,60.12
3461.00,59.97
3460.00,59.83
3459.00,59.72
3458.00,59.62
3457.00,59.49
3456.00,59.33
3455.00,59.16
3454.00,59.01
3453.00,58.88
3452.00,58.76
3451.00,58.63
3450.00,58.49
3449.00,58.32
3448.00,58.15
3447.00,57.98
3446.00,57.84
3445.00,57.72
3444.00,57.59
3443.00,57.44
3442.00,57.31
3441.00,57.22
3440.00,57.13
3439.00,57.00
3438.00,56.78
3437.00,56.52
3436.00,56.30
3435.00,56.16
3434.00,56.09
3433.00,56.04
3432.00,55.97
3431.00,55.85
3430.00,55.70
3429.00,55.54
3428.00,55.42
3427.00,55.33
3426.00,55.25
3425.00,55.15
3424.00,55.02
3423.00,54.88
3422.00,54.77
3421.00,54.70
3420.00,54.65
3419.00,54.58
3418.00,54.47
3417.00,54.29
3416.00,54.06
3415.00,53.81
3414.00,53.61
3413.00,53.46
3412.00,53.35
3411.00,53.25
3410.00,53.14
3409.00,53.03
3408.00,52.92
3407.00,52.84
3406.00,52.77
3405.00,52.68
3404.00,52.57
3403.00,52.44
3402.00,52.34
3401.00,52.30
3400.00,52.29
3399.00,52.27
3398.00,52.18
3397.00,52.01
3396.00,51.80
3395.00,51.61
3394.00,51.49
3393.00,51.42
3392.00,51.37
3391.00,51.31
3390.00,51.25
3389.00,51.19
3388.00,51.12
3387.00,51.03
3386.00,50.90
3385.00,50.74
3384.00,50.57
3383.00,50.46
3382.00,50.40
3381.00,50.39
3380.00,50.38
3379.00,50.36
3378.00,50.32
3377.00,50.28
3376.00,50.24
3375.00,50.22
3374.00,50.18
3373.00,50.13
3372.00,50.05
3371.00,49.97
3370.00,49.88
3369.00,49.79
3368.00,49.71
3367.00,49.66
3366.00,49.65
3365.00,49.66
3364.00,49.69
3363.00,49.70
3362.00,49.72
3361.00,49.72
3360.00,49.68
3359.00,49.62
3358.00,49.54
3357.00,49.47
3356.00,49.43
3355.00,49.39
3354.00,49.34
3353.00,49.29
3352.00,49.26
3351.00,49.26
3350.00,49.26
3349.00,49.26
3348.00,49.26
3347.00,49.27
3346.00,49.28
3345.00,49.27
3344.00,49.22
3343.00,49.15
3342.00,49.09
3341.00,49.07
3340.00,49.10
3339.00,49.15
3338.00,49.20
3337.00,49.23
3336.00,49.22
3335.00,49.21
3334.00,49.18
3333.00,49.15
3332.00,49.14
3331.00,49.14
3330.00,49.16
3329.00,49.16
3328.00,49.14
3327.00,49.10
3326.00,49.04
3325.00,49.01
3324.00,48.99
3323.00,49.00
3322.00,49.01
3321.00,49.02
3320.00,49.01
3319.00,48.98
3318.00,48.92
3317.00,48.85
3316.00,48.80
3315.00,48.80
3314.00,48.85
3313.00,48.90
3312.00,48.92
3311.00,48.90
3310.00,48.86
3309.00,48.85
3308.00,48.87
3307.00,48.91
3306.00,48.96
3305.00,49.00
3304.00,49.01
3303.00,48.98
3302.00,48.95
3301.00,48.95
3300.00,48.99
3299.00,49.05
3298.00,49.11
3297.00,49.16
3296.00,49.19
3295.00,49.22
3294.00,49.24
3293.00,49.25
3292.00,49.25
3291.00,49.23
3290.00,49.19
3289.00,49.13
3288.00,49.07
3287.00,49.03
3286.00,49.01
3285.00,49.03
3284.00,49.06
3283.00,49.06
3282.00,49.05
3281.00,49.03
3280.00,49.03
3279.00,49.03
3278.00,49.02
3277.00,49.00
3276.00,48.98
3275.00,49.00
3274.00,49.04
3273.00,49.11
3272.00,49.15
3271.00,49.17
3270.00,49.17
3269.00,49.15
3268.00,49.11
3267.00,49.06
3266.00,49.05
3265.00,49.09
3264.00,49.15
3263.00,49.20
3262.00,49.24
3261.00,49.27
3260.00,49.30
3259.00,49.31
3258.00,49.31
3257.00,49.33
3256.00,49.39
3255.00,49.48
3254.00,49.54
3253.00,49.57
3252.00,49.59
3251.00,49.61
3250.00,49.65
3249.00,49.67
3248.00,49.67
3247.00,49.63
3246.00,49.59
3245.00,49.58
3244.00,49.60
3243.00,49.63
3242.00,49.66
3241.00,49.69
3240.00,49.74
3239.00,49.80
3238.00,49.87
3237.00,49.95
3236.00,50.02
3235.00,50.09
3234.00,50.15
3233.00,50.20
3232.00,50.22
3231.00,50.22
3230.00,50.18
3229.00,50.16
3228.00,50.19
3227.00,50.26
3226.00,50.35
3225.00,50.44
3224.00,50.52
3223.00,50.58
3222.00,50.63
3221.00,50.69
3220.00,50.73
3219.00,50.77
3218.00,50.81
3217.00,50.85
3216.00,50.90
3215.00,50.96
3214.00,51.06
3213.00,51.21
3212.00,51.37
3211.00,51.54
3210.00,51.68
3209.00,51.79
3208.00,51.86
3207.00,51.89
3206.00,51.91
3205.00,51.93
3204.00,51.98
3203.00,52.07
3202.00,52.20
3201.00,52.35
3200.00,52.51
3199.00,52.65
3198.00,52.78
3197.00,52.90
3196.00,53.02
3195.00,53.14
3194.00,53.26
3193.00,53.39
3192.00,53.53
3191.00,53.67
3190.00,53.80
3189.00,53.94
3188.00,54.10
3187.00,54.29
3186.00,54.46
3185.00,54.59
3184.00,54.70
3183.00,54.82
3182.00,54.97
3181.00,55.14
3180.00,55.29
3179.00,55.41
3178.00,55.50
3177.00,55.61
3176.00,55.74
3175.00,55.88
3174.00,56.04
3173.00,56.21
3172.00,56.40
3171.00,56.61
3170.00,56.81
3169.00,57.00
3168.00,57.17
3167.00,57.35
3166.00,57.53
3165.00,57.68
3164.00,57.81
3163.00,57.93
3162.00,58.07
3161.00,58.26
3160.00,58.47
3159.00,58.68
3158.00,58.86
3157.00,59.02
3156.00,59.17
3155.00,59.34
3154.00,59.52
3153.00,59.71
3152.00,59.86
3151.00,59.98
3150.00,60.10
3149.00,60.25
3148.00,60.45
3147.00,60.68
3146.00,60.93
3145.00,61.17
3144.00,61.36
3143.00,61.51
3142.00,61.65
3141.00,61.82
3140.00,62.02
3139.00,62.22
3138.00,62.43
3137.00,62.64
3136.00,62.82
3135.00,62.98
3134.00,63.10
3133.00,63.26
3132.00,63.47
3131.00,63.73
3130.00,63.99
3129.00,64.21
3128.00,64.36
3127.00,64.48
3126.00,64.62
3125.00,64.78
3124.00,64.96
3123.00,65.13
3122.00,65.30
3121.00,65.49
3120.00,65.70
3119.00,65.91
3118.00,66.13
3117.00,66.34
3116.00,66.53
3115.00,66.69
3114.00,66.84
3113.00,67.01
3112.00,67.20
3111.00,67.41
3110.00,67.60
3109.00,67.75
3108.00,67.88
3107.00,68.03
3106.00,68.24
3105.00,68.48
3104.00,68.75
3103.00,69.00
3102.00,69.22
3101.00,69.39
3100.00,69.51
3099.00,69.61
3098.00,69.72
3097.00,69.87
3096.00,70.06
3095.00,70.28
3094.00,70.49
3093.00,70.67
3092.00,70.83
3091.00,70.96
3090.00,71.09
3089.00,71.24
3088.00,71.42
3087.00,71.63
3086.00,71.87
3085.00,72.12
3084.00,72.37
3083.00,72.57
3082.00,72.73
3081.00,72.86
3080.00,72.98
3079.00,73.11
3078.00,73.25
3077.00,73.42
3076.00,73.59
3075.00,73.75
3074.00,73.90
3073.00,74.03
3072.00,74.17
3071.00,74.31
3070.00,74.49
3069.00,74.68
3068.00,74.89
3067.00,75.09
3066.00,75.29
3065.00,75.49
3064.00,75.67
3063.00,75.82
3062.00,75.91
3061.00,75.97
3060.00,76.04
3059.00,76.14
3058.00,76.27
3057.00,76.44
3056.00,76.64
3055.00,76.84
3054.00,77.03
3053.00,77.17
3052.00,77.27
3051.00,77.35
3050.00,77.45
3049.00,77.58
3048.00,77.74
3047.00,77.88
3046.00,78.01
3045.00,78.12
3044.00,78.25
3043.00,78.42
3042.00,78.63
3041.00,78.85
3040.00,79.04
3039.00,79.20
3038.00,79.34
3037.00,79.48
3036.00,79.61
3035.00,79.72
3034.00,79.81
3033.00,79.89
3032.00,79.98
3031.00,80.10
3030.00,80.22
3029.00,80.34
3028.00,80.44
3027.00,80.54
3026.00,80.64
3025.00,80.75
3024.00,80.87
3023.00,81.00
3022.00,81.13
3021.00,81.26
3020.00,81.38
3019.00,81.52
3018.00,81.65
3017.00,81.78
3016.00,81.90
3015.00,82.00
3014.00,82.10
3013.00,82.18
3012.00,82.25
3011.00,82.34
3010.00,82.45
3009.00,82.59
3008.00,82.74
3007.00,82.89
3006.00,83.03
3005.00,83.15
3004.00,83.25
3003.00,83.32
3002.00,83.39
3001.00,83.46
3000.00,83.54
2999.00,83.63
2998.00,83.71
2997.00,83.80
2996.00,83.90
2995.00,84.01
2994.00,84.13
2993.00,84.27
2992.00,84.41
2991.00,84.55
2990.00,84.68
2989.00,84.79
2988.00,84.88
2987.00,84.95
2986.00,85.01
2985.00,85.05
2984.00,85.08
2983.00,85.12
2982.00,85.19
2981.00,85.26
2980.00,85.33
2979.00,85.40
2978.00,85.49
2977.00,85.62
2976.00,85.77
2975.00,85.92
2974.00,86.03
2973.00,86.12
2972.00,86.19
2971.00,86.26
2970.00,86.33
2969.00,86.39
2968.00,86.43
2967.00,86.49
2966.00,86.57
2965.00,86.67
2964.00,86.76
2963.00,86.82
2962.00,86.85
2961.00,86.88
2960.00,86.95
2959.00,87.07
2958.00,87.21
2957.00,87.34
2956.00,87.43
2955.00,87.50
2954.00,87.56
2953.00,87.61
2952.00,87.64
2951.00,87.66
2950.00,87.68
2949.00,87.72
2948.00,87.80
2947.00,87.91
2946.00,88.01
2945.00,88.09
2944.00,88.14
2943.00,88.15
2942.00,88.15
2941.00,88.18
2940.00,88.25
2939.00,88.35
2938.00,88.45
2937.00,88.54
2936.00,88.61
2935.00,88.68
2934.00,88.74
2933.00,88.80
2932.00,88.86
2931.00,88.90
2930.00,88.94
2929.00,88.98
2928.00,89.04
2927.00,89.10
2926.00,89.16
2925.00,89.21
2924.00,89.27
2923.00,89.35
2922.00,89.42
2921.00,89.46
2920.00,89.45
2919.00,89.42
2918.00,89.40
2917.00,89.44
2916.00,89.51
2915.00,89.61
2914.00,89.70
2913.00,89.77
2912.00,89.83
2911.00,89.89
2910.00,89.96
2909.00,90.02
2908.00,90.07
2907.00,90.09
2906.00,90.10
2905.00,90.12
2904.00,90.16
2903.00,90.20
2902.00,90.23
2901.00,90.26
2900.00,90.30
2899.00,90.35
2898.00,90.40
2897.00,90.44
2896.00,90.47
2895.00,90.51
2894.00,90.56
2893.00,90.61
2892.00,90.64
2891.00,90.66
2890.00,90.68
2889.00,90.73
2888.00,90.82
2887.00,90.91
2886.00,90.95
2885.00,90.95
2884.00,90.93
2883.00,90.96
2882.00,91.02
2881.00,91.08
2880.00,91.11
2879.00,91.11
2878.00,91.11
2877.00,91.11
2876.00,91.13
2875.00,91.16
2874.00,91.21
2873.00,91.26
2872.00,91.31
2871.00,91.36
2870.00,91.41
2869.00,91.47
2868.00,91.52
2867.00,91.55
2866.00,91.59
2865.00,91.62
2864.00,91.67
2863.00,91.72
2862.00,91.78
2861.00,91.82
2860.00,91.82
2859.00,91.78
2858.00,91.73
2857.00,91.72
2856.00,91.75
2855.00,91.81
2854.00,91.88
2853.00,91.92
2852.00,91.94
2851.00,91.93
2850.00,91.91
2849.00,91.89
2848.00,91.91
2847.00,91.95
2846.00,91.99
2845.00,92.02
2844.00,92.04
2843.00,92.08
2842.00,92.10
2841.00,92.10
2840.00,92.09
2839.00,92.10
2838.00,92.13
2837.00,92.17
2836.00,92.22
2835.00,92.28
2834.00,92.33
2833.00,92.38
2832.00,92.43
2831.00,92.48
2830.00,92.53
2829.00,92.57
2828.00,92.59
2827.00,92.58
2826.00,92.56
2825.00,92.55
2824.00,92.54
2823.00,92.53
2822.00,92.51
2821.00,92.48
2820.00,92.48
2819.00,92.49
2818.00,92.54
2817.00,92.61
2816.00,92.69
2815.00,92.76
2814.00,92.81
2813.00,92.83
2812.00,92.83
2811.00,92.83
2810.00,92.82
2809.00,92.82
2808.00,92.82
2807.00,92.82
2806.00,92.84
2805.00,92.86
2804.00,92.89
2803.00,92.91
2802.00,92.91
2801.00,92.90
2800.00,92.90
2799.00,92.91
2798.00,92.93
2797.00,92.95
2796.00,92.98
2795.00,93.00
2794.00,93.01
2793.00,93.02
2792.00,93.05
2791.00,93.10
2790.00,93.16
2789.00,93.20
2788.00,93.20
2787.00,93.18
2786.00,93.15
2785.00,93.12
2784.00,93.11
2783.00,93.11
2782.00,93.12
2781.00,93.11
2780.00,93.08
2779.00,93.05
2778.00,93.03
2777.00,93.05
2776.00,93.12
2775.00,93.21
2774.00,93.30
2773.00,93.34
2772.00,93.35
2771.00,93.34
2770.00,93.35
2769.00,93.35
2768.00,93.35
2767.00,93.34
2766.00,93.34
2765.00,93.36
2764.00,93.40
2763.00,93.44
2762.00,93.49
2761.00,93.50
2760.00,93.50
2759.00,93.48
2758.00,93.48
2757.00,93.48
2756.00,93.49
2755.00,93.51
2754.00,93.51
2753.00,93.52
2752.00,93.52
2751.00,93.53
2750.00,93.56
2749.00,93.60
2748.00,93.61
2747.00,93.59
2746.00,93.57
2745.00,93.57
2744.00,93.58
2743.00,93.60
2742.00,93.62
2741.00,93.63
2740.00,93.62
2739.00,93.61
2738.00,93.61
2737.00,93.63
2736.00,93.67
2735.00,93.71
2734.00,93.73
2733.00,93.72
2732.00,93.69
2731.00,93.65
2730.00,93.62
2729.00,93.61
2728.00,93.60
2727.00,93.60
2726.00,93.63
2725.00,93.68
2724.00,93.72
2723.00,93.72
2722.00,93.68
2721.00,93.65
2720.00,93.65
2719.00,93.68
2718.00,93.73
2717.00,93.78
2716.00,93.83
2715.00,93.85
2714.00,93.83
2713.00,93.78
2712.00,93.73
2711.00,93.72
2710.00,93.73
2709.00,93.76
2708.00,93.80
2707.00,93.83
2706.00,93.83
2705.00,93.81
2704.00,93.79
2703.00,93.80
2702.00,93.81
2701.00,93.82
2700.00,93.81
2699.00,93.79
2698.00,93.79
2697.00,93.82
2696.00,93.88
2695.00,93.93
2694.00,93.94
2693.00,93.92
2692.00,93.89
2691.00,93.88
2690.00,93.88
2689.00,93.88
2688.00,93.88
2687.00,93.88
2686.00,93.87
2685.00,93.87
2684.00,93.86
2683.00,93.87
2682.00,93.86
2681.00,93.83
2680.00,93.79
2679.00,93.77
2678.00,93.80
2677.00,93.84
2676.00,93.88
2675.00,93.89
2674.00,93.88
2673.00,93.88
2672.00,93.89
2671.00,93.92
2670.00,93.93
2669.00,93.91
2668.00,93.87
2667.00,93.83
2666.00,93.81
2665.00,93.81
2664.00,93.82
2663.00,93.83
2662.00,93.85
2661.00,93.86
2660.00,93.88
2659.00,93.90
2658.00,93.92
2657.00,93.91
2656.00,93.87
2655.00,93.82
2654.00,93.80
2653.00,93.80
2652.00,93.83
2651.00,93.85
2650.00,93.87
2649.00,93.88
2648.00,93.86
2647.00,93.84
2646.00,93.81
2645.00,93.79
2644.00,93.78
2643.00,93.79
2642.00,93.81
2641.00,93.83
2640.00,93.83
2639.00,93.82
2638.00,93.81
2637.00,93.80
2636.00,93.81
2635.00,93.83
2634.00,93.85
2633.00,93.86
2632.00,93.86
2631.00,93.85
2630.00,93.86
2629.00,93.87
2628.00,93.88
2627.00,93.91
2626.00,93.96
2625.00,93.99
2624.00,93.99
2623.00,93.94
2622.00,93.84
2621.00,93.73
2620.00,93.64
2619.00,93.62
2618.00,93.66
2617.00,93.75
2616.00,93.83
2615.00,93.88
2614.00,93.90
2613.00,93.91
2612.00,93.91
2611.00,93.93
2610.00,93.94
2609.00,93.94
2608.00,93.92
2607.00,93.89
2606.00,93.89
2605.00,93.93
2604.00,93.99
2603.00,94.03
2602.00,94.03
2601.00,93.99
2600.00,93.92
2599.00,93.83
2598.00,93.75
2597.00,93.68
2596.00,93.66
2595.00,93.69
2594.00,93.75
2593.00,93.81
2592.00,93.83
2591.00,93.83
2590.00,93.83
2589.00,93.84
2588.00,93.87
2587.00,93.91
2586.00,93.94
2585.00,93.96
2584.00,93.95
2583.00,93.93
2582.00,93.88
2581.00,93.83
2580.00,93.78
2579.00,93.76
2578.00,93.77
2577.00,93.81
2576.00,93.87
2575.00,93.93
2574.00,93.95
2573.00,93.93
2572.00,93.88
2571.00,93.85
2570.00,93.84
2569.00,93.84
2568.00,93.84
2567.00,93.82
2566.00,93.79
2565.00,93.76
2564.00,93.74
2563.00,93.73
2562.00,93.74
2561.00,93.80
2560.00,93.87
2559.00,93.93
2558.00,93.91
2557.00,93.82
2556.00,93.71
2555.00,93.62
2554.00,93.59
2553.00,93.62
2552.00,93.67
2551.00,93.72
2550.00,93.75
2549.00,93.77
2548.00,93.80
2547.00,93.85
2546.00,93.90
2545.00,93.91
2544.00,93.88
2543.00,93.84
2542.00,93.83
2541.00,93.85
2540.00,93.87
2539.00,93.87
2538.00,93.82
2537.00,93.75
2536.00,93.70
2535.00,93.70
2534.00,93.72
2533.00,93.70
2532.00,93.67
2531.00,93.65
2530.00,93.66
2529.00,93.68
2528.00,93.69
2527.00,93.69
2526.00,93.66
2525.00,93.62
2524.00,93.59
2523.00,93.59
2522.00,93.65
2521.00,93.70
2520.00,93.74
2519.00,93.76
2518.00,93.77
2517.00,93.76
2516.00,93.74
2515.00,93.72
2514.00,93.72
2513.00,93.74
2512.00,93.74
2511.00,93.73
2510.00,93.69
2509.00,93.66
2508.00,93.67
2507.00,93.69
2506.00,93.69
2505.00,93.64
2504.00,93.57
2503.00,93.52
2502.00,93.51
2501.00,93.52
2500.00,93.53
2499.00,93.53
2498.00,93.54
2497.00,93.55
2496.00,93.56
2495.00,93.55
2494.00,93.56
2493.00,93.58
2492.00,93.62
2491.00,93.67
2490.00,93.71
2489.00,93.73
2488.00,93.74
2487.00,93.77
2486.00,93.79
2485.00,93.78
2484.00,93.73
2483.00,93.67
2482.00,93.61
2481.00,93.54
2480.00,93.51
2479.00,93.53
2478.00,93.60
2477.00,93.67
2476.00,93.69
2475.00,93.64
2474.00,93.56
2473.00,93.51
2472.00,93.47
2471.00,93.45
2470.00,93.44
2469.00,93.44
2468.00,93.46
2467.00,93.50
2466.00,93.53
2465.00,93.53
2464.00,93.51
2463.00,93.50
2462.00,93.51
2461.00,93.53
2460.00,93.54
2459.00,93.55
2458.00,93.58
2457.00,93.60
2456.00,93.59
2455.00,93.58
2454.00,93.57
2453.00,93.58
2452.00,93.58
2451.00,93.55
2450.00,93.48
2449.00,93.40
2448.00,93.36
2447.00,93.35
2446.00,93.37
2445.00,93.38
2444.00,93.36
2443.00,93.32
2442.00,93.31
2441.00,93.30
2440.00,93.28
2439.00,93.23
2438.00,93.20
2437.00,93.22
2436.00,93.28
2435.00,93.36
2434.00,93.39
2433.00,93.37
2432.00,93.31
2431.00,93.24
2430.00,93.21
2429.00,93.21
2428.00,93.23
2427.00,93.24
2426.00,93.25
2425.00,93.26
2424.00,93.27
2423.00,93.27
2422.00,93.29
2421.00,93.29
2420.00,93.29
2419.00,93.27
2418.00,93.24
2417.00,93.22
2416.00,93.20
2415.00,93.17
2414.00,93.15
2413.00,93.15
2412.00,93.17
2411.00,93.21
2410.00,93.24
2409.00,93.24
2408.00,93.22
2407.00,93.18
2406.00,93.12
2405.00,93.04
2404.00,92.95
2403.00,92.91
2402.00,92.92
2401.00,93.00
2400.00,93.08
2399.00,93.13
2398.00,93.14
2397.00,93.12
2396.00,93.10
2395.00,93.08
2394.00,93.05
2393.00,93.01
2392.00,92.98
2391.00,92.96
2390.00,92.98
2389.00,93.01
2388.00,93.05
2387.00,93.09
2386.00,93.09
2385.00,93.07
2384.00,93.04
2383.00,93.01
2382.00,93.01
2381.00,93.02
2380.00,93.02
2379.00,92.99
2378.00,92.96
2377.00,92.92
2376.00,92.91
2375.00,92.95
2374.00,93.03
2373.00,93.08
2372.00,93.06
2371.00,92.93
2370.00,92.78
2369.00,92.70
2368.00,92.76
2367.00,92.95
2366.00,93.12
2365.00,93.17
2364.00,93.11
2363.00,93.04
2362.00,93.01
2361.00,92.95
2360.00,92.83
2359.00,92.70
2358.00,92.66
2357.00,92.73
2356.00,92.82
2355.00,92.82
2354.00,92.75
2353.00,92.68
2352.00,92.67
2351.00,92.70
2350.00,92.74
2349.00,92.75
2348.00,92.76
2347.00,92.80
2346.00,92.87
2345.00,92.96
2344.00,93.01
2343.00,93.00
2342.00,92.92
2341.00,92.80
2340.00,92.69
2339.00,92.66
2338.00,92.69
2337.00,92.72
2336.00,92.70
2335.00,92.65
2334.00,92.60
2333.00,92.55
2332.00,92.50
2331.00,92.44
2330.00,92.39
2329.00,92.36
2328.00,92.35
2327.00,92.39
2326.00,92.48
2325.00,92.55
2324.00,92.57
2323.00,92.51
2322.00,92.43
2321.00,92.39
2320.00,92.39
2319.00,92.41
2318.00,92.41
2317.00,92.40
2316.00,92.38
2315.00,92.37
2314.00,92.37
2313.00,92.40
2312.00,92.44
2311.00,92.47
2310.00,92.47
2309.00,92.44
2308.00,92.39
2307.00,92.37
2306.00,92.37
2305.00,92.36
2304.00,92.37
2303.00,92.41
2302.00,92.45
2301.00,92.44
2300.00,92.37
2299.00,92.26
2298.00,92.18
2297.00,92.13
2296.00,92.12
2295.00,92.14
2294.00,92.16
2293.00,92.15
2292.00,92.14
2291.00,92.15
2290.00,92.18
2289.00,92.21
2288.00,92.19
2287.00,92.15
2286.00,92.11
2285.00,92.08
2284.00,92.05
2283.00,92.02
2282.00,91.99
2281.00,91.96
2280.00,91.93
2279.00,91.92
2278.00,91.93
2277.00,91.99
2276.00,92.05
2275.00,92.10
2274.00,92.09
2273.00,92.00
2272.00,91.86
2271.00,91.75
2270.00,91.71
2269.00,91.74
2268.00,91.82
2267.00,91.91
2266.00,91.98
2265.00,91.99
2264.00,91.95
2263.00,91.92
2262.00,91.91
2261.00,91.91
2260.00,91.89
2259.00,91.86
2258.00,91.83
2257.00,91.79
2256.00,91.74
2255.00,91.67
2254.00,91.57
2253.00,91.47
2252.00,91.42
2251.00,91.42
2250.00,91.47
2249.00,91.52
2248.00,91.56
2247.00,91.56
2246.00,91.53
2245.00,91.51
2244.00,91.52
2243.00,91.58
2242.00,91.64
2241.00,91.63
2240.00,91.58
2239.00,91.56
2238.00,91.56
2237.00,91.55
2236.00,91.51
2235.00,91.50
2234.00,91.55
2233.00,91.59
2232.00,91.58
2231.00,91.54
2230.00,91.52
2229.00,91.49
2228.00,91.41
2227.00,91.33
2226.00,91.30
2225.00,91.30
2224.00,91.29
2223.00,91.28
2222.00,91.32
2221.00,91.38
2220.00,91.37
2219.00,91.24
2218.00,91.04
2217.00,90.89
2216.00,90.82
2215.00,90.85
2214.00,90.94
2213.00,91.07
2212.00,91.18
2211.00,91.26
2210.00,91.28
2209.00,91.24
2208.00,91.19
2207.00,91.16
2206.00,91.14
2205.00,91.11
2204.00,91.05
2203.00,90.99
2202.00,90.92
2201.00,90.81
2200.00,90.66
2199.00,90.50
2198.00,90.43
2197.00,90.44
2196.00,90.51
2195.00,90.58
2194.00,90.63
2193.00,90.70
2192.00,90.79
2191.00,90.86
2190.00,90.86
2189.00,90.78
2188.00,90.68
2187.00,90.63
2186.00,90.62
2185.00,90.63
2184.00,90.63
2183.00,90.65
2182.00,90.72
2181.00,90.81
2180.00,90.90
2179.00,90.98
2178.00,91.06
2177.00,91.10
2176.00,91.06
2175.00,90.96
2174.00,90.82
2173.00,90.68
2172.00,90.55
2171.00,90.47
2170.00,90.45
2169.00,90.46
2168.00,90.46
2167.00,90.43
2166.00,90.40
2165.00,90.36
2164.00,90.30
2163.00,90.24
2162.00,90.22
2161.00,90.25
2160.00,90.31
2159.00,90.43
2158.00,90.62
2157.00,90.83
2156.00,90.95
2155.00,90.95
2154.00,90.88
2153.00,90.84
2152.00,90.81
2151.00,90.78
2150.00,90.73
2149.00,90.69
2148.00,90.69
2147.00,90.71
2146.00,90.74
2145.00,90.77
2144.00,90.81
2143.00,90.85
2142.00,90.84
2141.00,90.73
2140.00,90.57
2139.00,90.40
2138.00,90.29
2137.00,90.27
2136.00,90.34
2135.00,90.45
2134.00,90.57
2133.00,90.65
2132.00,90.66
2131.00,90.64
2130.00,90.61
2129.00,90.60
2128.00,90.60
2127.00,90.58
2126.00,90.53
2125.00,90.47
2124.00,90.44
2123.00,90.42
2122.00,90.37
2121.00,90.28
2120.00,90.19
2119.00,90.16
2118.00,90.22
2117.00,90.33
2116.00,90.42
2115.00,90.43
2114.00,90.38
2113.00,90.32
2112.00,90.29
2111.00,90.32
2110.00,90.37
2109.00,90.39
2108.00,90.39
2107.00,90.38
2106.00,90.40
2105.00,90.44
2104.00,90.47
2103.00,90.46
2102.00,90.42
2101.00,90.37
2100.00,90.35
2099.00,90.37
2098.00,90.41
2097.00,90.44
2096.00,90.45
2095.00,90.42
2094.00,90.35
2093.00,90.26
2092.00,90.19
2091.00,90.19
2090.00,90.23
2089.00,90.28
2088.00,90.32
2087.00,90.36
2086.00,90.40
2085.00,90.44
2084.00,90.46
2083.00,90.47
2082.00,90.47
2081.00,90.47
2080.00,90.47
2079.00,90.47
2078.00,90.47
2077.00,90.45
2076.00,90.42
2075.00,90.41
2074.00,90.42
2073.00,90.43
2072.00,90.42
2071.00,90.42
2070.00,90.40
2069.00,90.34
2068.00,90.27
2067.00,90.27
2066.00,90.34
2065.00,90.44
2064.00,90.49
2063.00,90.49
2062.00,90.49
2061.00,90.51
2060.00,90.52
2059.00,90.54
2058.00,90.54
2057.00,90.53
2056.00,90.49
2055.00,90.48
2054.00,90.53
2053.00,90.62
2052.00,90.67
2051.00,90.64
2050.00,90.52
2049.00,90.38
2048.00,90.30
2047.00,90.29
2046.00,90.31
2045.00,90.32
2044.00,90.35
2043.00,90.47
2042.00,90.68
2041.00,90.85
2040.00,90.89
2039.00,90.82
2038.00,90.72
2037.00,90.67
2036.00,90.68
2035.00,90.73
2034.00,90.78
2033.00,90.78
2032.00,90.75
2031.00,90.74
2030.00,90.79
2029.00,90.86
2028.00,90.93
2027.00,90.97
2026.00,90.99
2025.00,91.02
2024.00,91.06
2023.00,91.09
2022.00,91.06
2021.00,90.98
2020.00,90.87
2019.00,90.80
2018.00,90.78
2017.00,90.81
2016.00,90.86
2015.00,90.91
2014.00,90.89
2013.00,90.79
2012.00,90.67
2011.00,90.65
2010.00,90.73
2009.00,90.85
2008.00,90.96
2007.00,91.07
2006.00,91.15
2005.00,91.15
2004.00,91.09
2003.00,91.08
2002.00,91.18
2001.00,91.32
2000.00,91.42
1999.00,91.46
1998.00,91.46
1997.00,91.46
1996.00,91.47
1995.00,91.50
1994.00,91.52
1993.00,91.49
1992.00,91.37
1991.00,91.19
1990.00,91.05
1989.00,91.04
1988.00,91.17
1987.00,91.38
1986.00,91.53
1985.00,91.56
1984.00,91.52
1983.00,91.48
1982.00,91.49
1981.00,91.54
1980.00,91.61
1979.00,91.65
1978.00,91.61
1977.00,91.49
1976.00,91.40
1975.00,91.42
1974.00,91.53
1973.00,91.58
1972.00,91.54
1971.00,91.49
1970.00,91.50
1969.00,91.52
1968.00,91.50
1967.00,91.46
1966.00,91.44
1965.00,91.44
1964.00,91.44
1963.00,91.45
1962.00,91.44
1961.00,91.42
1960.00,91.41
1959.00,91.49
1958.00,91.63
1957.00,91.73
1956.00,91.74
1955.00,91.71
1954.00,91.67
1953.00,91.62
1952.00,91.55
1951.00,91.49
1950.00,91.49
1949.00,91.52
1948.00,91.55
1947.00,91.55
1946.00,91.56
1945.00,91.61
1944.00,91.68
1943.00,91.77
1942.00,91.84
1941.00,91.88
1940.00,91.90
1939.00,91.94
1938.00,91.97
1937.00,91.98
1936.00,91.98
1935.00,92.00
1934.00,92.01
1933.00,91.99
1932.00,91.93
1931.00,91.88
1930.00,91.88
1929.00,91.92
1928.00,91.97
1927.00,92.03
1926.00,92.11
1925.00,92.16
1924.00,92.16
1923.00,92.11
1922.00,92.05
1921.00,92.00
1920.00,91.96
1919.00,91.95
1918.00,91.97
1917.00,92.01
1916.00,92.07
1915.00,92.15
1914.00,92.20
1913.00,92.18
1912.00,92.11
1911.00,92.07
1910.00,92.10
1909.00,92.14
1908.00,92.16
1907.00,92.15
1906.00,92.12
1905.00,92.07
1904.00,92.02
1903.00,92.01
1902.00,92.03
1901.00,92.04
1900.00,92.01
1899.00,91.98
1898.00,91.96
1897.00,91.94
1896.00,91.93
1895.00,91.92
1894.00,91.93
1893.00,91.93
1892.00,91.93
1891.00,91.96
1890.00,92.04
1889.00,92.13
1888.00,92.18
1887.00,92.17
1886.00,92.13
1885.00,92.05
1884.00,91.96
1883.00,91.91
1882.00,91.91
1881.00,91.93
1880.00,91.95
1879.00,92.00
1878.00,92.07
1877.00,92.13
1876.00,92.14
1875.00,92.10
1874.00,92.06
1873.00,92.02
1872.00,91.99
1871.00,91.99
1870.00,92.02
1869.00,92.08
1868.00,92.13
1867.00,92.13
1866.00,92.09
1865.00,92.02
1864.00,91.96
1863.00,91.93
1862.00,91.95
1861.00,91.98
1860.00,92.01
1859.00,92.02
1858.00,92.01
1857.00,92.00
1856.00,91.98
1855.00,91.99
1854.00,92.04
1853.00,92.08
1852.00,92.09
1851.00,92.08
1850.00,92.06
1849.00,92.03
1848.00,91.98
1847.00,91.95
1846.00,91.94
1845.00,91.96
1844.00,91.96
1843.00,91.96
1842.00,91.96
1841.00,91.96
1840.00,91.94
1839.00,91.91
1838.00,91.87
1837.00,91.83
1836.00,91.79
1835.00,91.78
1834.00,91.80
1833.00,91.82
1832.00,91.84
1831.00,91.88
1830.00,91.94
1829.00,91.96
1828.00,91.91
1827.00,91.85
1826.00,91.81
1825.00,91.81
1824.00,91.83
1823.00,91.85
1822.00,91.87
1821.00,91.89
1820.00,91.89
1819.00,91.90
1818.00,91.91
1817.00,91.89
1816.00,91.84
1815.00,91.80
1814.00,91.78
1813.00,91.78
1812.00,91.78
1811.00,91.78
1810.00,91.75
1809.00,91.71
1808.00,91.67
1807.00,91.68
1806.00,91.71
1805.00,91.72
1804.00,91.66
1803.00,91.57
1802.00,91.51
1801.00,91.49
1800.00,91.49
1799.00,91.51
1798.00,91.54
1797.00,91.55
1796.00,91.54
1795.00,91.52
1794.00,91.53
1793.00,91.54
1792.00,91.52
1791.00,91.48
1790.00,91.43
1789.00,91.38
1788.00,91.34
1787.00,91.31
1786.00,91.30
1785.00,91.29
1784.00,91.28
1783.00,91.27
1782.00,91.25
1781.00,91.19
1780.00,91.12
1779.00,91.07
1778.00,91.06
1777.00,91.08
1776.00,91.09
1775.00,91.11
1774.00,91.15
1773.00,91.14
1772.00,91.04
1771.00,90.91
1770.00,90.86
1769.00,90.84
1768.00,90.82
1767.00,90.77
1766.00,90.72
1765.00,90.69
1764.00,90.65
1763.00,90.62
1762.00,90.59
1761.00,90.54
1760.00,90.48
1759.00,90.44
1758.00,90.41
1757.00,90.35
1756.00,90.28
1755.00,90.23
1754.00,90.23
1753.00,90.24
1752.00,90.21
1751.00,90.10
1750.00,89.95
1749.00,89.82
1748.00,89.74
1747.00,89.72
1746.00,89.74
1745.00,89.73
1744.00,89.67
1743.00,89.59
1742.00,89.53
1741.00,89.49
1740.00,89.39
1739.00,89.26
1738.00,89.15
1737.00,89.08
1736.00,89.02
1735.00,88.91
1734.00,88.75
1733.00,88.60
1732.00,88.49
1731.00,88.40
1730.00,88.30
1729.00,88.18
1728.00,88.06
1727.00,87.96
1726.00,87.86
1725.00,87.74
1724.00,87.59
1723.00,87.45
1722.00,87.36
1721.00,87.29
1720.00,87.23
1719.00,87.12
1718.00,86.95
1717.00,86.66
1716.00,86.35
1715.00,86.13
1714.00,86.01
1713.00,85.93
1712.00,85.82
1711.00,85.69
1710.00,85.55
1709.00,85.42
1708.00,85.26
1707.00,85.08
1706.00,84.84
1705.00,84.56
1704.00,84.32
1703.00,84.16
1702.00,84.03
1701.00,83.76
1700.00,83.28
1699.00,82.87
1698.00,82.66
1697.00,82.47
1696.00,82.13
1695.00,81.80
1694.00,81.60
1693.00,81.47
1692.00,81.33
1691.00,81.12
1690.00,80.86
1689.00,80.57
1688.00,80.29
1687.00,80.07
1686.00,79.91
1685.00,79.65
1684.00,79.10
1683.00,78.57
1682.00,78.25
1681.00,77.98
1680.00,77.70
1679.00,77.44
1678.00,77.26
1677.00,77.07
1676.00,76.75
1675.00,76.31
1674.00,75.93
1673.00,75.69
1672.00,75.49
1671.00,75.23
1670.00,74.85
1669.00,74.41
1668.00,74.01
1667.00,73.75
1666.00,73.57
1665.00,73.41
1664.00,73.15
1663.00,72.75
1662.00,72.35
1661.00,72.04
1660.00,71.79
1659.00,71.56
1658.00,71.35
1657.00,71.19
1656.00,71.06
1655.00,70.92
1654.00,70.61
1653.00,70.03
1652.00,69.60
1651.00,69.43
1650.00,69.38
1649.00,69.32
1648.00,69.13
1647.00,68.73
1646.00,68.34
1645.00,68.13
1644.00,68.01
1643.00,67.92
1642.00,67.83
1641.00,67.75
1640.00,67.65
1639.00,67.56
1638.00,67.51
1637.00,67.48
1636.00,67.43
1635.00,67.39
1634.00,67.41
1633.00,67.47
1632.00,67.52
1631.00,67.58
1630.00,67.68
1629.00,67.83
1628.00,67.97
1627.00,68.10
1626.00,68.24
1625.00,68.43
1624.00,68.66
1623.00,68.93
1622.00,69.21
1621.00,69.46
1620.00,69.67
1619.00,69.85
1618.00,70.09
1617.00,70.45
1616.00,70.86
1615.00,71.20
1614.00,71.48
1613.00,71.76
1612.00,72.05
1611.00,72.37
1610.00,72.70
1609.00,73.04
1608.00,73.37
1607.00,73.68
1606.00,73.97
1605.00,74.25
1604.00,74.53
1603.00,74.81
1602.00,75.08
1601.00,75.35
1600.00,75.61
1599.00,75.86
1598.00,76.10
1597.00,76.36
1596.00,76.61
1595.00,76.84
1594.00,77.07
1593.00,77.29
1592.00,77.51
1591.00,77.73
1590.00,77.95
1589.00,78.16
1588.00,78.35
1587.00,78.53
1586.00,78.71
1585.00,78.90
1584.00,79.07
1583.00,79.23
1582.00,79.37
1581.00,79.50
1580.00,79.63
1579.00,79.76
1578.00,79.91
1577.00,80.10
1576.00,80.30
1575.00,80.44
1574.00,80.54
1573.00,80.64
1572.00,80.76
1571.00,80.88
1570.00,81.02
1569.00,81.14
1568.00,81.24
1567.00,81.33
1566.00,81.41
1565.00,81.49
1564.00,81.59
1563.00,81.69
1562.00,81.80
1561.00,81.97
1560.00,82.20
1559.00,82.31
1558.00,82.16
1557.00,82.08
1556.00,82.12
1555.00,82.22
1554.00,82.32
1553.00,82.40
1552.00,82.48
1551.00,82.53
1550.00,82.57
1549.00,82.62
1548.00,82.69
1547.00,82.79
1546.00,82.89
1545.00,83.01
1544.00,83.13
1543.00,83.22
1542.00,83.29
1541.00,83.30
1540.00,83.24
1539.00,83.19
1538.00,83.21
1537.00,83.26
1536.00,83.33
1535.00,83.38
1534.00,83.42
1533.00,83.45
1532.00,83.50
1531.00,83.55
1530.00,83.60
1529.00,83.64
1528.00,83.68
1527.00,83.72
1526.00,83.75
1525.00,83.77
1524.00,83.78
1523.00,83.78
1522.00,83.79
1521.00,83.83
1520.00,83.92
1519.00,84.00
1518.00,84.06
1517.00,84.07
1516.00,84.04
1515.00,84.02
1514.00,84.01
1513.00,84.02
1512.00,84.05
1511.00,84.08
1510.00,84.15
1509.00,84.25
1508.00,84.40
1507.00,84.48
1506.00,84.41
1505.00,84.36
1504.00,84.34
1503.00,84.35
1502.00,84.38
1501.00,84.42
1500.00,84.47
1499.00,84.52
1498.00,84.56
1497.00,84.58
1496.00,84.59
1495.00,84.59
1494.00,84.58
1493.00,84.57
1492.00,84.59
1491.00,84.61
1490.00,84.64
1489.00,84.66
1488.00,84.66
1487.00,84.65
1486.00,84.64
1485.00,84.65
1484.00,84.67
1483.00,84.69
1482.00,84.69
1481.00,84.69
1480.00,84.70
1479.00,84.73
1478.00,84.76
1477.00,84.78
1476.00,84.79
1475.00,84.77
1474.00,84.74
1473.00,84.69
1472.00,84.67
1471.00,84.68
1470.00,84.72
1469.00,84.76
1468.00,84.80
1467.00,84.83
1466.00,84.83
1465.00,84.83
1464.00,84.84
1463.00,84.86
1462.00,84.87
1461.00,84.89
1460.00,84.91
1459.00,84.95
1458.00,84.96
1457.00,84.91
1456.00,84.85
1455.00,84.85
1454.00,84.88
1453.00,84.92
1452.00,84.96
1451.00,84.99
1450.00,85.01
1449.00,85.03
1448.00,85.04
1447.00,85.04
1446.00,85.03
1445.00,85.05
1444.00,85.07
1443.00,85.09
1442.00,85.11
1441.00,85.13
1440.00,85.15
1439.00,85.17
1438.00,85.18
1437.00,85.16
1436.00,85.13
1435.00,85.11
1434.00,85.10
1433.00,85.11
1432.00,85.11
1431.00,85.12
1430.00,85.13
1429.00,85.14
1428.00,85.14
1427.00,85.14
1426.00,85.17
1425.00,85.21
1424.00,85.23
1423.00,85.23
1422.00,85.21
1421.00,85.20
1420.00,85.20
1419.00,85.19
1418.00,85.17
1417.00,85.16
1416.00,85.17
1415.00,85.19
1414.00,85.20
1413.00,85.19
1412.00,85.17
1411.00,85.14
1410.00,85.13
1409.00,85.15
1408.00,85.19
1407.00,85.21
1406.00,85.21
1405.00,85.20
1404.00,85.22
1403.00,85.26
1402.00,85.30
1401.00,85.32
1400.00,85.33
1399.00,85.31
1398.00,85.30
1397.00,85.31
1396.00,85.33
1395.00,85.33
1394.00,85.29
1393.00,85.25
1392.00,85.23
1391.00,85.23
1390.00,85.25
1389.00,85.29
1388.00,85.31
1387.00,85.31
1386.00,85.29
1385.00,85.28
1384.00,85.27
1383.00,85.26
1382.00,85.25
1381.00,85.24
1380.00,85.25
1379.00,85.25
1378.00,85.25
1377.00,85.24
1376.00,85.25
1375.00,85.27
1374.00,85.28
1373.00,85.27
1372.00,85.24
1371.00,85.22
1370.00,85.22
1369.00,85.23
1368.00,85.25
1367.00,85.26
1366.00,85.27
1365.00,85.27
1364.00,85.28
1363.00,85.28
1362.00,85.26
1361.00,85.24
1360.00,85.23
1359.00,85.22
1358.00,85.21
1357.00,85.19
1356.00,85.17
1355.00,85.16
1354.00,85.18
1353.00,85.20
1352.00,85.21
1351.00,85.22
1350.00,85.21
1349.00,85.22
1348.00,85.22
1347.00,85.22
1346.00,85.21
1345.00,85.19
1344.00,85.18
1343.00,85.19
1342.00,85.21
1341.00,85.23
1340.00,85.24
1339.00,85.23
1338.00,85.21
1337.00,85.21
1336.00,85.20
1335.00,85.19
1334.00,85.17
1333.00,85.15
1332.00,85.15
1331.00,85.16
1330.00,85.17
1329.00,85.16
1328.00,85.14
1327.00,85.11
1326.00,85.08
1325.00,85.07
1324.00,85.10
1323.00,85.13
1322.00,85.15
1321.00,85.14
1320.00,85.11
1319.00,85.08
1318.00,85.07
1317.00,85.08
1316.00,85.11
1315.00,85.14
1314.00,85.14
1313.00,85.13
1312.00,85.11
1311.00,85.09
1310.00,85.07
1309.00,85.07
1308.00,85.08
1307.00,85.10
1306.00,85.12
1305.00,85.13
1304.00,85.14
1303.00,85.13
1302.00,85.11
1301.00,85.08
1300.00,85.06
1299.00,85.05
1298.00,85.06
1297.00,85.07
1296.00,85.08
1295.00,85.09
1294.00,85.10
1293.00,85.10
1292.00,85.08
1291.00,85.06
1290.00,85.03
1289.00,85.02
1288.00,85.02
1287.00,85.04
1286.00,85.06
1285.00,85.06
1284.00,85.05
1283.00,85.04
1282.00,85.03
1281.00,85.03
1280.00,85.02
1279.00,85.01
1278.00,84.99
1277.00,84.97
1276.00,84.96
1275.00,84.96
1274.00,84.95
1273.00,84.96
1272.00,84.97
1271.00,84.98
1270.00,84.98
1269.00,84.96
1268.00,84.92
1267.00,84.88
1266.00,84.85
1265.00,84.85
1264.00,84.85
1263.00,84.86
1262.00,84.85
1261.00,84.85
1260.00,84.84
1259.00,84.85
1258.00,84.85
1257.00,84.82
1256.00,84.76
1255.00,84.70
1254.00,84.66
1253.00,84.66
1252.00,84.70
1251.00,84.75
1250.00,84.76
1249.00,84.73
1248.00,84.68
1247.00,84.64
1246.00,84.62
1245.00,84.60
1244.00,84.57
1243.00,84.55
1242.00,84.53
1241.00,84.53
1240.00,84.51
1239.00,84.48
1238.00,84.47
1237.00,84.47
1236.00,84.50
1235.00,84.52
1234.00,84.54
1233.00,84.56
1232.00,84.57
1231.00,84.57
1230.00,84.57
1229.00,84.56
1228.00,84.55
1227.00,84.55
1226.00,84.55
1225.00,84.55
1224.00,84.56
1223.00,84.58
1222.00,84.61
1221.00,84.63
1220.00,84.63
1219.00,84.60
1218.00,84.58
1217.00,84.59
1216.00,84.60
1215.00,84.62
1214.00,84.64
1213.00,84.65
1212.00,84.65
1211.00,84.63
1210.00,84.61
1209.00,84.60
1208.00,84.61
1207.00,84.62
1206.00,84.61
1205.00,84.61
1204.00,84.62
1203.00,84.63
1202.00,84.65
1201.00,84.66
1200.00,84.65
1199.00,84.63
1198.00,84.61
1197.00,84.61
1196.00,84.64
1195.00,84.68
1194.00,84.70
1193.00,84.71
1192.00,84.70
1191.00,84.68
1190.00,84.67
1189.00,84.66
1188.00,84.66
1187.00,84.65
1186.00,84.65
1185.00,84.65
1184.00,84.66
1183.00,84.67
1182.00,84.67
1181.00,84.68
1180.00,84.69
1179.00,84.69
1178.00,84.68
1177.00,84.67
1176.00,84.67
1175.00,84.68
1174.00,84.69
1173.00,84.68
1172.00,84.65
1171.00,84.63
1170.00,84.60
1169.00,84.60
1168.00,84.60
1167.00,84.60
1166.00,84.58
1165.00,84.56
1164.00,84.54
1163.00,84.55
1162.00,84.57
1161.00,84.59
1160.00,84.60
1159.00,84.62
1158.00,84.65
1157.00,84.66
1156.00,84.66
1155.00,84.65
1154.00,84.62
1153.00,84.58
1152.00,84.54
1151.00,84.49
1150.00,84.46
1149.00,84.46
1148.00,84.49
1147.00,84.52
1146.00,84.54
1145.00,84.52
1144.00,84.48
1143.00,84.43
1142.00,84.42
1141.00,84.43
1140.00,84.46
1139.00,84.48
1138.00,84.49
1137.00,84.49
1136.00,84.46
1135.00,84.42
1134.00,84.38
1133.00,84.37
1132.00,84.39
1131.00,84.40
1130.00,84.38
1129.00,84.33
1128.00,84.30
1127.00,84.29
1126.00,84.30
1125.00,84.31
1124.00,84.32
1123.00,84.32
1122.00,84.34
1121.00,84.37
1120.00,84.38
1119.00,84.38
1118.00,84.34
1117.00,84.31
1116.00,84.29
1115.00,84.30
1114.00,84.31
1113.00,84.32
1112.00,84.32
1111.00,84.29
1110.00,84.25
1109.00,84.22
1108.00,84.25
1107.00,84.31
1106.00,84.35
1105.00,84.36
1104.00,84.34
1103.00,84.33
1102.00,84.33
1101.00,84.31
1100.00,84.27
1099.00,84.22
1098.00,84.19
1097.00,84.17
1096.00,84.15
1095.00,84.13
1094.00,84.10
1093.00,84.06
1092.00,84.03
1091.00,84.03
1090.00,84.05
1089.00,84.08
1088.00,84.10
1087.00,84.11
1086.00,84.11
1085.00,84.11
1084.00,84.11
1083.00,84.12
1082.00,84.13
1081.00,84.13
1080.00,84.13
1079.00,84.11
1078.00,84.09
1077.00,84.07
1076.00,84.06
1075.00,84.07
1074.00,84.05
1073.00,84.00
1072.00,83.93
1071.00,83.86
1070.00,83.83
1069.00,83.81
1068.00,83.79
1067.00,83.77
1066.00,83.76
1065.00,83.75
1064.00,83.73
1063.00,83.71
1062.00,83.70
1061.00,83.73
1060.00,83.78
1059.00,83.82
1058.00,83.85
1057.00,83.85
1056.00,83.83
1055.00,83.81
1054.00,83.77
1053.00,83.72
1052.00,83.67
1051.00,83.65
1050.00,83.68
1049.00,83.75
1048.00,83.79
1047.00,83.79
1046.00,83.76
1045.00,83.74
1044.00,83.72
1043.00,83.70
1042.00,83.68
1041.00,83.65
1040.00,83.64
1039.00,83.64
1038.00,83.63
1037.00,83.60
1036.00,83.55
1035.00,83.49
1034.00,83.44
1033.00,83.43
1032.00,83.44
1031.00,83.43
1030.00,83.40
1029.00,83.35
1028.00,83.32
1027.00,83.33
1026.00,83.34
1025.00,83.34
1024.00,83.33
1023.00,83.31
1022.00,83.28
1021.00,83.24
1020.00,83.20
1019.00,83.19
1018.00,83.21
1017.00,83.23
1016.00,83.21
1015.00,83.15
1014.00,83.09
1013.00,83.04
1012.00,83.00
1011.00,82.96
1010.00,82.94
1009.00,82.96
1008.00,83.01
1007.00,83.07
1006.00,83.12
1005.00,83.13
1004.00,83.12
1003.00,83.10
1002.00,83.06
1001.00,83.01
1000.00,82.93
999.00,82.85
998.00,82.77
997.00,82.71
996.00,82.68
995.00,82.66
994.00,82.63
993.00,82.56
992.00,82.48
991.00,82.42
990.00,82.37
989.00,82.35
988.00,82.34
987.00,82.32
986.00,82.28
985.00,82.23
984.00,82.20
983.00,82.21
982.00,82.21
981.00,82.18
980.00,82.13
979.00,82.09
978.00,82.06
977.00,82.02
976.00,81.93
975.00,81.83
974.00,81.74
973.00,81.69
972.00,81.64
971.00,81.58
970.00,81.50
969.00,81.43
968.00,81.38
967.00,81.38
966.00,81.39
965.00,81.38
964.00,81.32
963.00,81.23
962.00,81.13
961.00,81.07
960.00,81.02
959.00,80.96
958.00,80.88
957.00,80.81
956.00,80.73
955.00,80.67
954.00,80.62
953.00,80.58
952.00,80.55
951.00,80.52
950.00,80.49
949.00,80.45
948.00,80.38
947.00,80.30
946.00,80.21
945.00,80.14
944.00,80.09
943.00,80.04
942.00,79.96
941.00,79.85
940.00,79.70
939.00,79.53
938.00,79.38
937.00,79.25
936.00,79.13
935.00,79.03
934.00,78.93
933.00,78.85
932.00,78.78
931.00,78.70
930.00,78.61
929.00,78.55
928.00,78.50
927.00,78.46
926.00,78.41
925.00,78.35
924.00,78.29
923.00,78.20
922.00,78.05
921.00,77.88
920.00,77.72
919.00,77.62
918.00,77.55
917.00,77.48
916.00,77.42
915.00,77.35
914.00,77.27
913.00,77.14
912.00,76.96
911.00,76.80
910.00,76.66
909.00,76.54
908.00,76.44
907.00,76.38
906.00,76.35
905.00,76.29
904.00,76.16
903.00,75.97
902.00,75.77
901.00,75.59
900.00,75.43
899.00,75.28
898.00,75.13
897.00,75.03
896.00,74.95
895.00,74.87
894.00,74.74
893.00,74.57
892.00,74.39
891.00,74.26
890.00,74.16
889.00,74.04
888.00,73.85
887.00,73.65
886.00,73.47
885.00,73.34
884.00,73.25
883.00,73.18
882.00,73.11
881.00,72.99
880.00,72.85
879.00,72.71
878.00,72.58
877.00,72.42
876.00,72.23
875.00,72.03
874.00,71.83
873.00,71.64
872.00,71.43
871.00,71.26
870.00,71.16
869.00,71.10
868.00,71.04
867.00,70.91
866.00,70.74
865.00,70.54
864.00,70.34
863.00,70.16
862.00,70.02
861.00,69.89
860.00,69.76
859.00,69.61
858.00,69.45
857.00,69.30
856.00,69.17
855.00,69.07
854.00,68.99
853.00,68.88
852.00,68.73
851.00,68.57
850.00,68.40
849.00,68.21
848.00,68.02
847.00,67.84
846.00,67.67
845.00,67.49
844.00,67.29
843.00,67.12
842.00,66.98
841.00,66.89
840.00,66.82
839.00,66.73
838.00,66.61
837.00,66.45
836.00,66.26
835.00,66.03
834.00,65.80
833.00,65.56
832.00,65.32
831.00,65.11
830.00,64.95
829.00,64.85
828.00,64.81
827.00,64.80
826.00,64.76
825.00,64.66
824.00,64.52
823.00,64.36
822.00,64.16
821.00,63.90
820.00,63.62
819.00,63.40
818.00,63.25
817.00,63.11
816.00,62.97
815.00,62.88
814.00,62.83
813.00,62.79
812.00,62.70
811.00,62.53
810.00,62.28
809.00,61.97
808.00,61.68
807.00,61.50
806.00,61.42
805.00,61.34
804.00,61.22
803.00,61.08
802.00,60.96
801.00,60.87
800.00,60.79
799.00,60.71
798.00,60.61
797.00,60.47
796.00,60.30
795.00,60.11
794.00,59.90
793.00,59.68
792.00,59.45
791.00,59.28
790.00,59.16
789.00,59.06
788.00,58.96
787.00,58.88
786.00,58.80
785.00,58.68
784.00,58.47
783.00,58.22
782.00,58.00
781.00,57.84
780.00,57.73
779.00,57.65
778.00,57.59
777.00,57.49
776.00,57.35
775.00,57.17
774.00,56.98
773.00,56.78
772.00,56.59
771.00,56.44
770.00,56.34
769.00,56.26
768.00,56.18
767.00,56.09
766.00,56.00
765.00,55.90
764.00,55.79
763.00,55.69
762.00,55.62
761.00,55.54
760.00,55.43
759.00,55.33
758.00,55.23
757.00,55.12
756.00,54.98
755.00,54.86
754.00,54.74
753.00,54.59
752.00,54.37
751.00,54.15
750.00,54.00
749.00,53.90
748.00,53.81
747.00,53.71
746.00,53.56
745.00,53.36
744.00,53.16
743.00,53.02
742.00,52.98
741.00,52.96
740.00,52.92
739.00,52.88
738.00,52.85
737.00,52.78
736.00,52.64
735.00,52.47
734.00,52.31
733.00,52.17
732.00,52.02
731.00,51.87
730.00,51.77
729.00,51.68
728.00,51.56
727.00,51.42
726.00,51.31
725.00,51.25
724.00,51.20
723.00,51.13
722.00,51.02
721.00,50.86
720.00,50.66
719.00,50.49
718.00,50.38
717.00,50.31
716.00,50.22
715.00,50.14
714.00,50.09
713.00,50.03
712.00,49.94
711.00,49.81
710.00,49.65
709.00,49.47
708.00,49.26
707.00,49.07
706.00,48.97
705.00,48.94
704.00,48.95
703.00,48.98
702.00,48.99
701.00,48.96
700.00,48.86
699.00,48.73
698.00,48.64
697.00,48.58
696.00,48.52
695.00,48.42
694.00,48.27
693.00,48.13
692.00,48.01
691.00,47.92
690.00,47.83
689.00,47.72
688.00,47.62
687.00,47.58
686.00,47.56
685.00,47.50
684.00,47.40
683.00,47.31
682.00,47.25
681.00,47.17
680.00,47.05
679.00,46.93
678.00,46.87
677.00,46.86
676.00,46.84
675.00,46.78
674.00,46.64
673.00,46.44
672.00,46.26
671.00,46.17
670.00,46.18
669.00,46.18
668.00,46.08
667.00,45.93
666.00,45.80
665.00,45.68
664.00,45.55
663.00,45.47
662.00,45.43
661.00,45.37
660.00,45.29
659.00,45.26
658.00,45.30
657.00,45.33
656.00,45.31
655.00,45.27
654.00,45.25
653.00,45.18
652.00,45.06
651.00,44.96
650.00,44.91
649.00,44.83
648.00,44.68
647.00,44.50
646.00,44.35
645.00,44.22
644.00,44.16
643.00,44.24
642.00,44.34
641.00,44.26
640.00,44.03
639.00,43.91
638.00,44.01
637.00,44.15
636.00,44.15
635.00,44.07
634.00,44.06
633.00,44.08
632.00,44.11
631.00,44.20
630.00,44.29
629.00,44.24
628.00,44.04
627.00,43.94
626.00,44.02
625.00,43.99
624.00,43.72
623.00,43.46
622.00,43.40
621.00,43.29
620.00,42.88
619.00,42.39
618.00,42.21
617.00,42.29
616.00,42.40
615.00,42.47
614.00,42.49
613.00,42.31
612.00,42.03
611.00,42.02
610.00,42.34
609.00,42.60
608.00,42.54
607.00,42.45
606.00,42.71
605.00,43.25
604.00,43.74
603.00,43.96
602.00,43.84
601.00,43.38
600.00,42.83
599.00,42.60
598.00,42.70
597.00,42.69
596.00,42.32
595.00,41.94
594.00,42.02
593.00,42.48
592.00,42.96
591.00,43.26
590.00,43.34
589.00,43.14
588.00,42.68
587.00,42.21
586.00,41.84
585.00,41.42
584.00,40.97
583.00,40.86
582.00,41.12
581.00,41.06
580.00,40.25
579.00,39.48
578.00,39.76
577.00,41.05
576.00,42.46
575.00,43.28
574.00,43.37
573.00,42.78
572.00,41.86
571.00,41.32
570.00,41.59
569.00,42.24
568.00,42.60
567.00,42.34
566.00,41.38
565.00,39.95
564.00,38.77
563.00,38.76
562.00,39.90
561.00,41.30
560.00,42.57
559.00,44.01
558.00,45.26
557.00,45.35
556.00,44.03
555.00,42.28
554.00,41.15
553.00,40.45
552.00,39.51
551.00,38.47
550.00,38.11
