Created as New Dataset,Sample 003 By Administrator Date Thursday, December 10 2020
cm-1,%T
4000.00,95.96
3999.00,95.96
3998.00,95.97
3997.00,95.97
3996.00,95.92
3995.00,95.84
3994.00,95.77
3993.00,95.72
3992.00,95.72
3991.00,95.74
3990.00,95.76
3989.00,95.77
3988.00,95.78
3987.00,95.80
3986.00,95.82
3985.00,95.83
3984.00,95.83
3983.00,95.80
3982.00,95.77
3981.00,95.75
3980.00,95.75
3979.00,95.78
3978.00,95.83
3977.00,95.88
3976.00,95.92
3975.00,95.94
3974.00,95.95
3973.00,95.96
3972.00,95.95
3971.00,95.94
3970.00,95.91
3969.00,95.88
3968.00,95.86
3967.00,95.85
3966.00,95.86
3965.00,95.88
3964.00,95.88
3963.00,95.89
3962.00,95.90
3961.00,95.92
3960.00,95.94
3959.00,95.96
3958.00,95.98
3957.00,95.98
3956.00,95.96
3955.00,95.92
3954.00,95.87
3953.00,95.79
3952.00,95.72
3951.00,95.69
3950.00,95.70
3949.00,95.75
3948.00,95.82
3947.00,95.89
3946.00,95.96
3945.00,96.01
3944.00,96.05
3943.00,96.06
3942.00,96.03
3941.00,95.99
3940.00,95.99
3939.00,96.01
3938.00,96.06
3937.00,96.09
3936.00,96.12
3935.00,96.13
3934.00,96.12
3933.00,96.09
3932.00,96.06
3931.00,96.02
3930.00,95.99
3929.00,95.97
3928.00,95.97
3927.00,95.99
3926.00,96.01
3925.00,96.03
3924.00,96.02
3923.00,95.99
3922.00,95.95
3921.00,95.91
3920.00,95.89
3919.00,95.91
3918.00,95.94
3917.00,95.98
3916.00,95.99
3915.00,95.99
3914.00,95.97
3913.00,95.95
3912.00,95.93
3911.00,95.92
3910.00,95.91
3909.00,95.92
3908.00,95.94
3907.00,95.97
3906.00,96.00
3905.00,95.99
3904.00,95.95
3903.00,95.87
3902.00,95.79
3901.00,95.76
3900.00,95.79
3899.00,95.88
3898.00,95.97
3897.00,96.05
3896.00,96.10
3895.00,96.12
3894.00,96.12
3893.00,96.08
3892.00,96.02
3891.00,95.95
3890.00,95.90
3889.00,95.87
3888.00,95.86
3887.00,95.88
3886.00,95.94
3885.00,96.02
3884.00,96.06
3883.00,96.07
3882.00,96.05
3881.00,96.02
3880.00,95.99
3879.00,95.95
3878.00,95.91
3877.00,95.89
3876.00,95.89
3875.00,95.93
3874.00,95.99
3873.00,96.06
3872.00,96.12
3871.00,96.15
3870.00,96.12
3869.00,96.06
3868.00,95.98
3867.00,95.92
3866.00,95.89
3865.00,95.89
3864.00,95.91
3863.00,95.94
3862.00,95.96
3861.00,95.97
3860.00,95.96
3859.00,95.93
3858.00,95.89
3857.00,95.84
3856.00,95.76
3855.00,95.66
3854.00,95.56
3853.00,95.54
3852.00,95.60
3851.00,95.69
3850.00,95.77
3849.00,95.84
3848.00,95.90
3847.00,95.94
3846.00,95.96
3845.00,95.94
3844.00,95.89
3843.00,95.84
3842.00,95.82
3841.00,95.81
3840.00,95.82
3839.00,95.83
3838.00,95.82
3837.00,95.79
3836.00,95.75
3835.00,95.73
3834.00,95.73
3833.00,95.76
3832.00,95.80
3831.00,95.83
3830.00,95.84
3829.00,95.84
3828.00,95.85
3827.00,95.87
3826.00,95.88
3825.00,95.86
3824.00,95.82
3823.00,95.79
3822.00,95.80
3821.00,95.86
3820.00,95.94
3819.00,96.00
3818.00,96.04
3817.00,96.06
3816.00,96.05
3815.00,96.02
3814.00,96.00
3813.00,96.00
3812.00,96.01
3811.00,96.02
3810.00,96.00
3809.00,95.96
3808.00,95.89
3807.00,95.82
3806.00,95.76
3805.00,95.71
3804.00,95.67
3803.00,95.66
3802.00,95.70
3801.00,95.76
3800.00,95.80
3799.00,95.80
3798.00,95.80
3797.00,95.83
3796.00,95.88
3795.00,95.92
3794.00,95.95
3793.00,95.94
3792.00,95.89
3791.00,95.82
3790.00,95.75
3789.00,95.71
3788.00,95.71
3787.00,95.75
3786.00,95.79
3785.00,95.79
3784.00,95.75
3783.00,95.68
3782.00,95.61
3781.00,95.58
3780.00,95.60
3779.00,95.63
3778.00,95.65
3777.00,95.63
3776.00,95.60
3775.00,95.58
3774.00,95.58
3773.00,95.59
3772.00,95.62
3771.00,95.63
3770.00,95.63
3769.00,95.58
3768.00,95.53
3767.00,95.48
3766.00,95.48
3765.00,95.52
3764.00,95.55
3763.00,95.56
3762.00,95.52
3761.00,95.46
3760.00,95.41
3759.00,95.42
3758.00,95.46
3757.00,95.51
3756.00,95.54
3755.00,95.52
3754.00,95.47
3753.00,95.40
3752.00,95.33
3751.00,95.28
3750.00,95.26
3749.00,95.28
3748.00,95.35
3747.00,95.44
3746.00,95.52
3745.00,95.56
3744.00,95.52
3743.00,95.44
3742.00,95.37
3741.00,95.32
3740.00,95.29
3739.00,95.27
3738.00,95.27
3737.00,95.29
3736.00,95.29
3735.00,95.23
3734.00,95.13
3733.00,95.05
3732.00,95.03
3731.00,95.05
3730.00,95.09
3729.00,95.12
3728.00,95.15
3727.00,95.19
3726.00,95.22
3725.00,95.22
3724.00,95.19
3723.00,95.13
3722.00,95.08
3721.00,95.06
3720.00,95.07
3719.00,95.10
3718.00,95.14
3717.00,95.18
3716.00,95.21
3715.00,95.23
3714.00,95.23
3713.00,95.21
3712.00,95.17
3711.00,95.10
3710.00,95.02
3709.00,94.94
3708.00,94.86
3707.00,94.80
3706.00,94.73
3705.00,94.63
3704.00,94.53
3703.00,94.42
3702.00,94.35
3701.00,94.32
3700.00,94.30
3699.00,94.27
3698.00,94.24
3697.00,94.19
3696.00,94.15
3695.00,94.11
3694.00,94.04
3693.00,93.93
3692.00,93.76
3691.00,93.55
3690.00,93.35
3689.00,93.21
3688.00,93.14
3687.00,93.08
3686.00,93.02
3685.00,92.95
3684.00,92.87
3683.00,92.79
3682.00,92.69
3681.00,92.58
3680.00,92.45
3679.00,92.33
3678.00,92.22
3677.00,92.08
3676.00,91.93
3675.00,91.81
3674.00,91.75
3673.00,91.73
3672.00,91.70
3671.00,91.60
3670.00,91.42
3669.00,91.18
3668.00,90.95
3667.00,90.75
3666.00,90.56
3665.00,90.41
3664.00,90.27
3663.00,90.13
3662.00,89.98
3661.00,89.81
3660.00,89.63
3659.00,89.44
3658.00,89.24
3657.00,89.04
3656.00,88.85
3655.00,88.69
3654.00,88.57
3653.00,88.46
3652.00,88.35
3651.00,88.18
3650.00,87.86
3649.00,87.44
3648.00,87.10
3647.00,86.95
3646.00,86.90
3645.00,86.88
3644.00,86.81
3643.00,86.70
3642.00,86.57
3641.00,86.42
3640.00,86.26
3639.00,86.09
3638.00,85.93
3637.00,85.80
3636.00,85.70
3635.00,85.61
3634.00,85.51
3633.00,85.42
3632.00,85.33
3631.00,85.17
3630.00,84.91
3629.00,84.56
3628.00,84.28
3627.00,84.14
3626.00,84.06
3625.00,84.00
3624.00,83.94
3623.00,83.87
3622.00,83.78
3621.00,83.66
3620.00,83.48
3619.00,83.28
3618.00,83.08
3617.00,82.92
3616.00,82.78
3615.00,82.63
3614.00,82.48
3613.00,82.33
3612.00,82.20
3611.00,82.08
3610.00,81.92
3609.00,81.73
3608.00,81.55
3607.00,81.43
3606.00,81.37
3605.00,81.32
3604.00,81.24
3603.00,81.10
3602.00,80.92
3601.00,80.73
3600.00,80.56
3599.00,80.44
3598.00,80.36
3597.00,80.30
3596.00,80.25
3595.00,80.18
3594.00,80.08
3593.00,79.98
3592.00,79.87
3591.00,79.76
3590.00,79.61
3589.00,79.40
3588.00,79.16
3587.00,78.94
3586.00,78.78
3585.00,78.63
3584.00,78.47
3583.00,78.31
3582.00,78.15
3581.00,77.99
3580.00,77.86
3579.00,77.76
3578.00,77.68
3577.00,77.59
3576.00,77.47
3575.00,77.29
3574.00,77.10
3573.00,76.92
3572.00,76.79
3571.00,76.70
3570.00,76.62
3569.00,76.51
3568.00,76.33
3567.00,76.11
3566.00,75.92
3565.00,75.78
3564.00,75.68
3563.00,75.57
3562.00,75.46
3561.00,75.34
3560.00,75.24
3559.00,75.12
3558.00,74.97
3557.00,74.79
3556.00,74.59
3555.00,74.38
3554.00,74.18
3553.00,74.00
3552.00,73.84
3551.00,73.71
3550.00,73.62
3549.00,73.53
3548.00,73.44
3547.00,73.31
3546.00,73.14
3545.00,72.94
3544.00,72.75
3543.00,72.57
3542.00,72.40
3541.00,72.23
3540.00,72.06
3539.00,71.89
3538.00,71.74
3537.00,71.59
3536.00,71.44
3535.00,71.30
3534.00,71.17
3533.00,71.05
3532.00,70.92
3531.00,70.75
3530.00,70.57
3529.00,70.39
3528.00,70.22
3527.00,70.06
3526.00,69.91
3525.00,69.76
3524.00,69.60
3523.00,69.43
3522.00,69.27
3521.00,69.14
3520.00,69.02
3519.00,68.92
3518.00,68.81
3517.00,68.67
3516.00,68.51
3515.00,68.36
3514.00,68.23
3513.00,68.13
3512.00,68.03
3511.00,67.90
3510.00,67.73
3509.00,67.56
3508.00,67.41
3507.00,67.29
3506.00,67.16
3505.00,66.97
3504.00,66.73
3503.00,66.48
3502.00,66.27
3501.00,66.14
3500.00,66.05
3499.00,65.96
3498.00,65.85
3497.00,65.69
3496.00,65.52
3495.00,65.36
3494.00,65.22
3493.00,65.09
3492.00,64.96
3491.00,64.80
3490.00,64.62
3489.00,64.43
3488.00,64.26
3487.00,64.12
3486.00,64.00
3485.00,63.88
3484.00,63.73
3483.00,63.56
3482.00,63.37
3481.00,63.20
3480.00,63.06
3479.00,62.96
3478.00,62.87
3477.00,62.74
3476.00,62.59
3475.00,62.42
3474.00,62.26
3473.00,62.12
3472.00,61.97
3471.00,61.83
3470.00,61.67
3469.00,61.53
3468.00,61.41
3467.00,61.28
3466.00,61.16
3465.00,61.02
3464.00,60.88
3463.00,60.73
3462.00,60.60
3461.00,60.50
3460.00,60.41
3459.00,60.30
3458.00,60.15
3457.00,59.97
3456.00,59.78
3455.00,59.61
3454.00,59.46
3453.00,59.32
3452.00,59.19
3451.00,59.07
3450.00,58.95
3449.00,58.82
3448.00,58.67
3447.00,58.49
3446.00,58.32
3445.00,58.17
3444.00,58.03
3443.00,57.87
3442.00,57.71
3441.00,57.56
3440.00,57.44
3439.00,57.33
3438.00,57.21
3437.00,57.08
3436.00,56.96
3435.00,56.85
3434.00,56.76
3433.00,56.67
3432.00,56.58
3431.00,56.46
3430.00,56.32
3429.00,56.16
3428.00,56.00
3427.00,55.85
3426.00,55.72
3425.00,55.61
3424.00,55.49
3423.00,55.34
3422.00,55.18
3421.00,55.04
3420.00,54.94
3419.00,54.89
3418.00,54.83
3417.00,54.76
3416.00,54.63
3415.00,54.46
3414.00,54.28
3413.00,54.13
3412.00,54.02
3411.00,53.96
3410.00,53.90
3409.00,53.82
3408.00,53.72
3407.00,53.62
3406.00,53.52
3405.00,53.41
3404.00,53.30
3403.00,53.18
3402.00,53.05
3401.00,52.94
3400.00,52.85
3399.00,52.78
3398.00,52.69
3397.00,52.59
3396.00,52.47
3395.00,52.37
3394.00,52.29
3393.00,52.22
3392.00,52.15
3391.00,52.07
3390.00,51.98
3389.00,51.88
3388.00,51.80
3387.00,51.73
3386.00,51.67
3385.00,51.61
3384.00,51.54
3383.00,51.46
3382.00,51.37
3381.00,51.30
3380.00,51.26
3379.00,51.25
3378.00,51.24
3377.00,51.21
3376.00,51.15
3375.00,51.06
3374.00,50.97
3373.00,50.88
3372.00,50.77
3371.00,50.66
3370.00,50.58
3369.00,50.54
3368.00,50.54
3367.00,50.56
3366.00,50.58
3365.00,50.60
3364.00,50.60
3363.00,50.56
3362.00,50.51
3361.00,50.46
3360.00,50.42
3359.00,50.39
3358.00,50.35
3357.00,50.31
3356.00,50.28
3355.00,50.25
3354.00,50.23
3353.00,50.23
3352.00,50.22
3351.00,50.19
3350.00,50.16
3349.00,50.13
3348.00,50.12
3347.00,50.12
3346.00,50.11
3345.00,50.08
3344.00,50.07
3343.00,50.08
3342.00,50.11
3341.00,50.11
3340.00,50.08
3339.00,50.03
3338.00,50.00
3337.00,50.00
3336.00,50.02
3335.00,50.03
3334.00,50.03
3333.00,50.03
3332.00,50.03
3331.00,50.01
3330.00,49.98
3329.00,49.93
3328.00,49.90
3327.00,49.88
3326.00,49.88
3325.00,49.89
3324.00,49.90
3323.00,49.92
3322.00,49.93
3321.00,49.94
3320.00,49.94
3319.00,49.93
3318.00,49.92
3317.00,49.88
3316.00,49.83
3315.00,49.77
3314.00,49.73
3313.00,49.73
3312.00,49.76
3311.00,49.80
3310.00,49.83
3309.00,49.85
3308.00,49.88
3307.00,49.91
3306.00,49.95
3305.00,49.99
3304.00,50.01
3303.00,50.01
3302.00,50.00
3301.00,49.98
3300.00,49.96
3299.00,49.93
3298.00,49.92
3297.00,49.92
3296.00,49.96
3295.00,49.98
3294.00,49.99
3293.00,49.98
3292.00,49.97
3291.00,49.97
3290.00,50.00
3289.00,50.03
3288.00,50.05
3287.00,50.07
3286.00,50.07
3285.00,50.08
3284.00,50.09
3283.00,50.09
3282.00,50.07
3281.00,50.04
3280.00,50.01
3279.00,49.98
3278.00,49.96
3277.00,49.95
3276.00,49.95
3275.00,49.95
3274.00,49.95
3273.00,49.95
3272.00,49.97
3271.00,50.01
3270.00,50.05
3269.00,50.07
3268.00,50.07
3267.00,50.06
3266.00,50.07
3265.00,50.09
3264.00,50.11
3263.00,50.12
3262.00,50.10
3261.00,50.10
3260.00,50.11
3259.00,50.12
3258.00,50.12
3257.00,50.11
3256.00,50.09
3255.00,50.07
3254.00,50.05
3253.00,50.06
3252.00,50.12
3251.00,50.21
3250.00,50.29
3249.00,50.35
3248.00,50.38
3247.00,50.40
3246.00,50.43
3245.00,50.47
3244.00,50.52
3243.00,50.56
3242.00,50.61
3241.00,50.65
3240.00,50.69
3239.00,50.71
3238.00,50.72
3237.00,50.72
3236.00,50.73
3235.00,50.74
3234.00,50.75
3233.00,50.76
3232.00,50.79
3231.00,50.84
3230.00,50.92
3229.00,51.02
3228.00,51.11
3227.00,51.20
3226.00,51.28
3225.00,51.36
3224.00,51.43
3223.00,51.49
3222.00,51.53
3221.00,51.57
3220.00,51.62
3219.00,51.69
3218.00,51.78
3217.00,51.86
3216.00,51.94
3215.00,51.99
3214.00,52.06
3213.00,52.14
3212.00,52.25
3211.00,52.36
3210.00,52.43
3209.00,52.49
3208.00,52.55
3207.00,52.64
3206.00,52.74
3205.00,52.85
3204.00,52.94
3203.00,53.03
3202.00,53.11
3201.00,53.19
3200.00,53.28
3199.00,53.37
3198.00,53.47
3197.00,53.60
3196.00,53.75
3195.00,53.91
3194.00,54.06
3193.00,54.19
3192.00,54.30
3191.00,54.39
3190.00,54.48
3189.00,54.59
3188.00,54.74
3187.00,54.89
3186.00,55.05
3185.00,55.19
3184.00,55.33
3183.00,55.46
3182.00,55.59
3181.00,55.71
3180.00,55.85
3179.00,56.00
3178.00,56.14
3177.00,56.26
3176.00,56.37
3175.00,56.48
3174.00,56.61
3173.00,56.78
3172.00,56.96
3171.00,57.14
3170.00,57.30
3169.00,57.46
3168.00,57.61
3167.00,57.75
3166.00,57.89
3165.00,58.04
3164.00,58.19
3163.00,58.34
3162.00,58.47
3161.00,58.58
3160.00,58.71
3159.00,58.86
3158.00,59.04
3157.00,59.23
3156.00,59.42
3155.00,59.58
3154.00,59.72
3153.00,59.88
3152.00,60.07
3151.00,60.28
3150.00,60.47
3149.00,60.63
3148.00,60.76
3147.00,60.89
3146.00,61.05
3145.00,61.24
3144.00,61.45
3143.00,61.65
3142.00,61.83
3141.00,62.01
3140.00,62.18
3139.00,62.35
3138.00,62.50
3137.00,62.65
3136.00,62.80
3135.00,62.96
3134.00,63.12
3133.00,63.25
3132.00,63.37
3131.00,63.51
3130.00,63.69
3129.00,63.89
3128.00,64.09
3127.00,64.28
3126.00,64.47
3125.00,64.68
3124.00,64.88
3123.00,65.07
3122.00,65.24
3121.00,65.38
3120.00,65.53
3119.00,65.67
3118.00,65.83
3117.00,65.99
3116.00,66.13
3115.00,66.26
3114.00,66.38
3113.00,66.52
3112.00,66.69
3111.00,66.88
3110.00,67.09
3109.00,67.31
3108.00,67.52
3107.00,67.70
3106.00,67.85
3105.00,68.00
3104.00,68.14
3103.00,68.29
3102.00,68.47
3101.00,68.65
3100.00,68.83
3099.00,68.98
3098.00,69.13
3097.00,69.29
3096.00,69.48
3095.00,69.65
3094.00,69.80
3093.00,69.93
3092.00,70.08
3091.00,70.23
3090.00,70.39
3089.00,70.52
3088.00,70.65
3087.00,70.79
3086.00,70.95
3085.00,71.13
3084.00,71.30
3083.00,71.45
3082.00,71.58
3081.00,71.70
3080.00,71.84
3079.00,72.02
3078.00,72.20
3077.00,72.38
3076.00,72.53
3075.00,72.67
3074.00,72.81
3073.00,72.94
3072.00,73.07
3071.00,73.19
3070.00,73.33
3069.00,73.48
3068.00,73.65
3067.00,73.81
3066.00,73.96
3065.00,74.08
3064.00,74.20
3063.00,74.36
3062.00,74.55
3061.00,74.75
3060.00,74.92
3059.00,75.05
3058.00,75.16
3057.00,75.26
3056.00,75.39
3055.00,75.55
3054.00,75.70
3053.00,75.85
3052.00,75.98
3051.00,76.11
3050.00,76.22
3049.00,76.34
3048.00,76.46
3047.00,76.60
3046.00,76.75
3045.00,76.88
3044.00,77.02
3043.00,77.15
3042.00,77.29
3041.00,77.42
3040.00,77.53
3039.00,77.62
3038.00,77.73
3037.00,77.86
3036.00,78.01
3035.00,78.15
3034.00,78.29
3033.00,78.42
3032.00,78.56
3031.00,78.69
3030.00,78.80
3029.00,78.88
3028.00,78.97
3027.00,79.09
3026.00,79.23
3025.00,79.38
3024.00,79.51
3023.00,79.63
3022.00,79.74
3021.00,79.82
3020.00,79.89
3019.00,79.98
3018.00,80.10
3017.00,80.26
3016.00,80.41
3015.00,80.55
3014.00,80.66
3013.00,80.75
3012.00,80.84
3011.00,80.93
3010.00,81.00
3009.00,81.08
3008.00,81.15
3007.00,81.23
3006.00,81.31
3005.00,81.41
3004.00,81.52
3003.00,81.65
3002.00,81.79
3001.00,81.94
3000.00,82.07
2999.00,82.18
2998.00,82.25
2997.00,82.32
2996.00,82.39
2995.00,82.47
2994.00,82.54
2993.00,82.63
2992.00,82.73
2991.00,82.85
2990.00,82.96
2989.00,83.06
2988.00,83.14
2987.00,83.19
2986.00,83.24
2985.00,83.29
2984.00,83.34
2983.00,83.41
2982.00,83.50
2981.00,83.60
2980.00,83.70
2979.00,83.79
2978.00,83.87
2977.00,83.93
2976.00,83.99
2975.00,84.05
2974.00,84.12
2973.00,84.18
2972.00,84.26
2971.00,84.36
2970.00,84.47
2969.00,84.57
2968.00,84.64
2967.00,84.68
2966.00,84.70
2965.00,84.74
2964.00,84.80
2963.00,84.89
2962.00,84.98
2961.00,85.07
2960.00,85.15
2959.00,85.23
2958.00,85.30
2957.00,85.36
2956.00,85.42
2955.00,85.47
2954.00,85.53
2953.00,85.59
2952.00,85.66
2951.00,85.73
2950.00,85.80
2949.00,85.86
2948.00,85.93
2947.00,86.02
2946.00,86.11
2945.00,86.18
2944.00,86.24
2943.00,86.29
2942.00,86.34
2941.00,86.39
2940.00,86.44
2939.00,86.49
2938.00,86.54
2937.00,86.61
2936.00,86.68
2935.00,86.74
2934.00,86.77
2933.00,86.78
2932.00,86.78
2931.00,86.80
2930.00,86.85
2929.00,86.93
2928.00,87.01
2927.00,87.07
2926.00,87.11
2925.00,87.15
2924.00,87.20
2923.00,87.27
2922.00,87.33
2921.00,87.38
2920.00,87.43
2919.00,87.48
2918.00,87.53
2917.00,87.58
2916.00,87.62
2915.00,87.67
2914.00,87.72
2913.00,87.77
2912.00,87.81
2911.00,87.87
2910.00,87.94
2909.00,88.02
2908.00,88.10
2907.00,88.18
2906.00,88.23
2905.00,88.28
2904.00,88.34
2903.00,88.42
2902.00,88.50
2901.00,88.57
2900.00,88.64
2899.00,88.71
2898.00,88.77
2897.00,88.79
2896.00,88.79
2895.00,88.79
2894.00,88.81
2893.00,88.84
2892.00,88.88
2891.00,88.93
2890.00,88.98
2889.00,89.02
2888.00,89.06
2887.00,89.09
2886.00,89.13
2885.00,89.17
2884.00,89.21
2883.00,89.25
2882.00,89.29
2881.00,89.32
2880.00,89.36
2879.00,89.40
2878.00,89.46
2877.00,89.51
2876.00,89.54
2875.00,89.57
2874.00,89.60
2873.00,89.64
2872.00,89.71
2871.00,89.78
2870.00,89.82
2869.00,89.84
2868.00,89.85
2867.00,89.87
2866.00,89.91
2865.00,89.95
2864.00,89.96
2863.00,89.96
2862.00,89.97
2861.00,90.01
2860.00,90.07
2859.00,90.12
2858.00,90.15
2857.00,90.17
2856.00,90.20
2855.00,90.24
2854.00,90.29
2853.00,90.33
2852.00,90.35
2851.00,90.37
2850.00,90.39
2849.00,90.42
2848.00,90.45
2847.00,90.49
2846.00,90.52
2845.00,90.55
2844.00,90.59
2843.00,90.64
2842.00,90.70
2841.00,90.75
2840.00,90.78
2839.00,90.78
2838.00,90.78
2837.00,90.77
2836.00,90.79
2835.00,90.83
2834.00,90.89
2833.00,90.96
2832.00,91.00
2831.00,91.02
2830.00,91.04
2829.00,91.05
2828.00,91.07
2827.00,91.07
2826.00,91.10
2825.00,91.14
2824.00,91.21
2823.00,91.26
2822.00,91.29
2821.00,91.27
2820.00,91.25
2819.00,91.23
2818.00,91.24
2817.00,91.27
2816.00,91.31
2815.00,91.37
2814.00,91.43
2813.00,91.48
2812.00,91.53
2811.00,91.56
2810.00,91.59
2809.00,91.60
2808.00,91.58
2807.00,91.56
2806.00,91.55
2805.00,91.56
2804.00,91.60
2803.00,91.64
2802.00,91.67
2801.00,91.68
2800.00,91.67
2799.00,91.67
2798.00,91.67
2797.00,91.69
2796.00,91.72
2795.00,91.75
2794.00,91.78
2793.00,91.80
2792.00,91.83
2791.00,91.87
2790.00,91.92
2789.00,91.94
2788.00,91.93
2787.00,91.90
2786.00,91.89
2785.00,91.90
2784.00,91.94
2783.00,91.98
2782.00,91.99
2781.00,91.99
2780.00,91.98
2779.00,91.99
2778.00,92.02
2777.00,92.04
2776.00,92.07
2775.00,92.11
2774.00,92.16
2773.00,92.19
2772.00,92.20
2771.00,92.20
2770.00,92.21
2769.00,92.23
2768.00,92.25
2767.00,92.26
2766.00,92.26
2765.00,92.26
2764.00,92.26
2763.00,92.28
2762.00,92.29
2761.00,92.30
2760.00,92.32
2759.00,92.34
2758.00,92.36
2757.00,92.35
2756.00,92.34
2755.00,92.33
2754.00,92.33
2753.00,92.34
2752.00,92.36
2751.00,92.39
2750.00,92.42
2749.00,92.45
2748.00,92.47
2747.00,92.48
2746.00,92.48
2745.00,92.47
2744.00,92.44
2743.00,92.43
2742.00,92.43
2741.00,92.47
2740.00,92.52
2739.00,92.58
2738.00,92.63
2737.00,92.65
2736.00,92.66
2735.00,92.64
2734.00,92.62
2733.00,92.60
2732.00,92.60
2731.00,92.59
2730.00,92.59
2729.00,92.59
2728.00,92.60
2727.00,92.62
2726.00,92.65
2725.00,92.66
2724.00,92.64
2723.00,92.62
2722.00,92.59
2721.00,92.57
2720.00,92.57
2719.00,92.59
2718.00,92.62
2717.00,92.67
2716.00,92.72
2715.00,92.77
2714.00,92.81
2713.00,92.84
2712.00,92.84
2711.00,92.81
2710.00,92.79
2709.00,92.76
2708.00,92.75
2707.00,92.75
2706.00,92.77
2705.00,92.80
2704.00,92.82
2703.00,92.83
2702.00,92.82
2701.00,92.79
2700.00,92.77
2699.00,92.76
2698.00,92.76
2697.00,92.78
2696.00,92.81
2695.00,92.83
2694.00,92.85
2693.00,92.86
2692.00,92.87
2691.00,92.89
2690.00,92.91
2689.00,92.94
2688.00,92.95
2687.00,92.96
2686.00,92.96
2685.00,92.95
2684.00,92.95
2683.00,92.96
2682.00,92.97
2681.00,92.97
2680.00,92.97
2679.00,92.95
2678.00,92.93
2677.00,92.91
2676.00,92.90
2675.00,92.91
2674.00,92.93
2673.00,92.94
2672.00,92.94
2671.00,92.94
2670.00,92.94
2669.00,92.95
2668.00,92.96
2667.00,92.96
2666.00,92.96
2665.00,92.95
2664.00,92.95
2663.00,92.96
2662.00,92.98
2661.00,92.98
2660.00,92.98
2659.00,92.96
2658.00,92.94
2657.00,92.90
2656.00,92.87
2655.00,92.85
2654.00,92.84
2653.00,92.85
2652.00,92.86
2651.00,92.88
2650.00,92.92
2649.00,92.94
2648.00,92.95
2647.00,92.95
2646.00,92.93
2645.00,92.92
2644.00,92.92
2643.00,92.93
2642.00,92.95
2641.00,92.96
2640.00,92.95
2639.00,92.94
2638.00,92.95
2637.00,92.98
2636.00,93.01
2635.00,93.01
2634.00,92.98
2633.00,92.93
2632.00,92.89
2631.00,92.89
2630.00,92.92
2629.00,92.94
2628.00,92.92
2627.00,92.90
2626.00,92.90
2625.00,92.92
2624.00,92.94
2623.00,92.95
2622.00,92.95
2621.00,92.92
2620.00,92.87
2619.00,92.81
2618.00,92.76
2617.00,92.74
2616.00,92.75
2615.00,92.78
2614.00,92.82
2613.00,92.85
2612.00,92.89
2611.00,92.92
2610.00,92.92
2609.00,92.90
2608.00,92.86
2607.00,92.83
2606.00,92.82
2605.00,92.85
2604.00,92.88
2603.00,92.90
2602.00,92.91
2601.00,92.91
2600.00,92.89
2599.00,92.84
2598.00,92.81
2597.00,92.81
2596.00,92.87
2595.00,92.94
2594.00,92.96
2593.00,92.94
2592.00,92.90
2591.00,92.88
2590.00,92.90
2589.00,92.92
2588.00,92.92
2587.00,92.86
2586.00,92.78
2585.00,92.72
2584.00,92.71
2583.00,92.75
2582.00,92.81
2581.00,92.84
2580.00,92.84
2579.00,92.82
2578.00,92.79
2577.00,92.76
2576.00,92.76
2575.00,92.78
2574.00,92.81
2573.00,92.82
2572.00,92.82
2571.00,92.81
2570.00,92.82
2569.00,92.85
2568.00,92.90
2567.00,92.93
2566.00,92.93
2565.00,92.91
2564.00,92.88
2563.00,92.86
2562.00,92.84
2561.00,92.82
2560.00,92.80
2559.00,92.79
2558.00,92.80
2557.00,92.81
2556.00,92.80
2555.00,92.79
2554.00,92.75
2553.00,92.70
2552.00,92.67
2551.00,92.67
2550.00,92.72
2549.00,92.78
2548.00,92.83
2547.00,92.85
2546.00,92.85
2545.00,92.84
2544.00,92.81
2543.00,92.78
2542.00,92.77
2541.00,92.77
2540.00,92.76
2539.00,92.75
2538.00,92.73
2537.00,92.70
2536.00,92.69
2535.00,92.68
2534.00,92.70
2533.00,92.73
2532.00,92.76
2531.00,92.78
2530.00,92.80
2529.00,92.79
2528.00,92.77
2527.00,92.76
2526.00,92.76
2525.00,92.77
2524.00,92.80
2523.00,92.81
2522.00,92.79
2521.00,92.78
2520.00,92.78
2519.00,92.83
2518.00,92.88
2517.00,92.89
2516.00,92.87
2515.00,92.83
2514.00,92.81
2513.00,92.79
2512.00,92.77
2511.00,92.73
2510.00,92.67
2509.00,92.65
2508.00,92.67
2507.00,92.72
2506.00,92.77
2505.00,92.80
2504.00,92.80
2503.00,92.80
2502.00,92.80
2501.00,92.78
2500.00,92.75
2499.00,92.73
2498.00,92.74
2497.00,92.75
2496.00,92.73
2495.00,92.69
2494.00,92.68
2493.00,92.72
2492.00,92.78
2491.00,92.82
2490.00,92.83
2489.00,92.81
2488.00,92.78
2487.00,92.76
2486.00,92.76
2485.00,92.75
2484.00,92.75
2483.00,92.74
2482.00,92.76
2481.00,92.79
2480.00,92.82
2479.00,92.83
2478.00,92.81
2477.00,92.78
2476.00,92.73
2475.00,92.66
2474.00,92.60
2473.00,92.55
2472.00,92.52
2471.00,92.51
2470.00,92.52
2469.00,92.52
2468.00,92.53
2467.00,92.54
2466.00,92.53
2465.00,92.52
2464.00,92.51
2463.00,92.53
2462.00,92.60
2461.00,92.70
2460.00,92.77
2459.00,92.80
2458.00,92.76
2457.00,92.69
2456.00,92.62
2455.00,92.57
2454.00,92.55
2453.00,92.53
2452.00,92.53
2451.00,92.52
2450.00,92.50
2449.00,92.48
2448.00,92.48
2447.00,92.48
2446.00,92.49
2445.00,92.49
2444.00,92.49
2443.00,92.49
2442.00,92.48
2441.00,92.46
2440.00,92.44
2439.00,92.44
2438.00,92.46
2437.00,92.49
2436.00,92.53
2435.00,92.53
2434.00,92.52
2433.00,92.49
2432.00,92.48
2431.00,92.49
2430.00,92.53
2429.00,92.57
2428.00,92.60
2427.00,92.60
2426.00,92.56
2425.00,92.50
2424.00,92.45
2423.00,92.44
2422.00,92.45
2421.00,92.45
2420.00,92.45
2419.00,92.44
2418.00,92.45
2417.00,92.47
2416.00,92.48
2415.00,92.49
2414.00,92.50
2413.00,92.50
2412.00,92.48
2411.00,92.45
2410.00,92.41
2409.00,92.36
2408.00,92.33
2407.00,92.33
2406.00,92.36
2405.00,92.41
2404.00,92.45
2403.00,92.45
2402.00,92.43
2401.00,92.41
2400.00,92.40
2399.00,92.41
2398.00,92.42
2397.00,92.43
2396.00,92.42
2395.00,92.41
2394.00,92.40
2393.00,92.40
2392.00,92.42
2391.00,92.43
2390.00,92.43
2389.00,92.41
2388.00,92.38
2387.00,92.34
2386.00,92.32
2385.00,92.30
2384.00,92.28
2383.00,92.24
2382.00,92.19
2381.00,92.16
2380.00,92.14
2379.00,92.12
2378.00,92.08
2377.00,92.03
2376.00,91.98
2375.00,91.96
2374.00,91.95
2373.00,91.93
2372.00,91.93
2371.00,91.95
2370.00,92.00
2369.00,92.05
2368.00,92.06
2367.00,92.00
2366.00,91.88
2365.00,91.72
2364.00,91.56
2363.00,91.46
2362.00,91.41
2361.00,91.39
2360.00,91.41
2359.00,91.45
2358.00,91.52
2357.00,91.60
2356.00,91.67
2355.00,91.70
2354.00,91.68
2353.00,91.64
2352.00,91.62
2351.00,91.62
2350.00,91.61
2349.00,91.56
2348.00,91.48
2347.00,91.38
2346.00,91.29
2345.00,91.20
2344.00,91.11
2343.00,91.03
2342.00,91.01
2341.00,91.04
2340.00,91.11
2339.00,91.21
2338.00,91.32
2337.00,91.44
2336.00,91.53
2335.00,91.58
2334.00,91.60
2333.00,91.60
2332.00,91.61
2331.00,91.62
2330.00,91.61
2329.00,91.58
2328.00,91.55
2327.00,91.49
2326.00,91.41
2325.00,91.31
2324.00,91.24
2323.00,91.23
2322.00,91.25
2321.00,91.26
2320.00,91.26
2319.00,91.27
2318.00,91.32
2317.00,91.39
2316.00,91.45
2315.00,91.49
2314.00,91.50
2313.00,91.49
2312.00,91.46
2311.00,91.45
2310.00,91.44
2309.00,91.43
2308.00,91.40
2307.00,91.39
2306.00,91.40
2305.00,91.41
2304.00,91.43
2303.00,91.42
2302.00,91.41
2301.00,91.39
2300.00,91.38
2299.00,91.38
2298.00,91.39
2297.00,91.38
2296.00,91.37
2295.00,91.37
2294.00,91.36
2293.00,91.35
2292.00,91.32
2291.00,91.28
2290.00,91.24
2289.00,91.20
2288.00,91.16
2287.00,91.15
2286.00,91.14
2285.00,91.14
2284.00,91.15
2283.00,91.15
2282.00,91.15
2281.00,91.15
2280.00,91.12
2279.00,91.10
2278.00,91.08
2277.00,91.08
2276.00,91.10
2275.00,91.12
2274.00,91.14
2273.00,91.14
2272.00,91.13
2271.00,91.10
2270.00,91.05
2269.00,90.97
2268.00,90.89
2267.00,90.84
2266.00,90.83
2265.00,90.84
2264.00,90.86
2263.00,90.86
2262.00,90.83
2261.00,90.79
2260.00,90.77
2259.00,90.80
2258.00,90.86
2257.00,90.88
2256.00,90.85
2255.00,90.78
2254.00,90.71
2253.00,90.67
2252.00,90.69
2251.00,90.76
2250.00,90.86
2249.00,90.93
2248.00,90.97
2247.00,91.01
2246.00,91.01
2245.00,90.96
2244.00,90.86
2243.00,90.76
2242.00,90.71
2241.00,90.73
2240.00,90.77
2239.00,90.80
2238.00,90.83
2237.00,90.82
2236.00,90.78
2235.00,90.73
2234.00,90.69
2233.00,90.65
2232.00,90.59
2231.00,90.54
2230.00,90.52
2229.00,90.52
2228.00,90.49
2227.00,90.44
2226.00,90.39
2225.00,90.40
2224.00,90.46
2223.00,90.50
2222.00,90.47
2221.00,90.39
2220.00,90.32
2219.00,90.30
2218.00,90.30
2217.00,90.32
2216.00,90.34
2215.00,90.36
2214.00,90.35
2213.00,90.29
2212.00,90.17
2211.00,90.06
2210.00,90.02
2209.00,90.05
2208.00,90.13
2207.00,90.19
2206.00,90.19
2205.00,90.14
2204.00,90.07
2203.00,90.04
2202.00,90.07
2201.00,90.09
2200.00,90.08
2199.00,90.02
2198.00,89.98
2197.00,89.99
2196.00,90.05
2195.00,90.12
2194.00,90.12
2193.00,90.05
2192.00,89.98
2191.00,89.94
2190.00,89.93
2189.00,89.86
2188.00,89.74
2187.00,89.60
2186.00,89.53
2185.00,89.58
2184.00,89.71
2183.00,89.85
2182.00,89.87
2181.00,89.76
2180.00,89.65
2179.00,89.64
2178.00,89.72
2177.00,89.80
2176.00,89.88
2175.00,89.98
2174.00,90.11
2173.00,90.19
2172.00,90.15
2171.00,90.02
2170.00,89.85
2169.00,89.70
2168.00,89.53
2167.00,89.35
2166.00,89.18
2165.00,89.08
2164.00,89.07
2163.00,89.17
2162.00,89.32
2161.00,89.45
2160.00,89.55
2159.00,89.66
2158.00,89.79
2157.00,89.90
2156.00,89.96
2155.00,89.99
2154.00,89.99
2153.00,89.93
2152.00,89.80
2151.00,89.65
2150.00,89.55
2149.00,89.55
2148.00,89.63
2147.00,89.71
2146.00,89.73
2145.00,89.68
2144.00,89.60
2143.00,89.56
2142.00,89.58
2141.00,89.62
2140.00,89.62
2139.00,89.52
2138.00,89.36
2137.00,89.23
2136.00,89.24
2135.00,89.38
2134.00,89.56
2133.00,89.68
2132.00,89.70
2131.00,89.66
2130.00,89.58
2129.00,89.51
2128.00,89.45
2127.00,89.42
2126.00,89.42
2125.00,89.44
2124.00,89.47
2123.00,89.49
2122.00,89.48
2121.00,89.45
2120.00,89.45
2119.00,89.48
2118.00,89.53
2117.00,89.53
2116.00,89.48
2115.00,89.40
2114.00,89.34
2113.00,89.32
2112.00,89.34
2111.00,89.37
2110.00,89.39
2109.00,89.39
2108.00,89.36
2107.00,89.32
2106.00,89.30
2105.00,89.33
2104.00,89.42
2103.00,89.51
2102.00,89.52
2101.00,89.44
2100.00,89.35
2099.00,89.33
2098.00,89.40
2097.00,89.49
2096.00,89.54
2095.00,89.53
2094.00,89.48
2093.00,89.43
2092.00,89.43
2091.00,89.47
2090.00,89.51
2089.00,89.50
2088.00,89.45
2087.00,89.42
2086.00,89.42
2085.00,89.45
2084.00,89.51
2083.00,89.56
2082.00,89.56
2081.00,89.51
2080.00,89.45
2079.00,89.41
2078.00,89.41
2077.00,89.43
2076.00,89.47
2075.00,89.52
2074.00,89.57
2073.00,89.58
2072.00,89.55
2071.00,89.54
2070.00,89.54
2069.00,89.54
2068.00,89.53
2067.00,89.53
2066.00,89.53
2065.00,89.52
2064.00,89.50
2063.00,89.49
2062.00,89.52
2061.00,89.54
2060.00,89.55
2059.00,89.54
2058.00,89.52
2057.00,89.48
2056.00,89.46
2055.00,89.46
2054.00,89.45
2053.00,89.39
2052.00,89.29
2051.00,89.21
2050.00,89.21
2049.00,89.28
2048.00,89.38
2047.00,89.50
2046.00,89.64
2045.00,89.75
2044.00,89.80
2043.00,89.81
2042.00,89.78
2041.00,89.72
2040.00,89.66
2039.00,89.61
2038.00,89.60
2037.00,89.60
2036.00,89.61
2035.00,89.66
2034.00,89.76
2033.00,89.83
2032.00,89.83
2031.00,89.80
2030.00,89.78
2029.00,89.78
2028.00,89.80
2027.00,89.85
2026.00,89.93
2025.00,90.00
2024.00,90.03
2023.00,90.02
2022.00,90.00
2021.00,89.99
2020.00,90.00
2019.00,90.07
2018.00,90.16
2017.00,90.22
2016.00,90.24
2015.00,90.24
2014.00,90.24
2013.00,90.23
2012.00,90.19
2011.00,90.16
2010.00,90.13
2009.00,90.12
2008.00,90.13
2007.00,90.19
2006.00,90.27
2005.00,90.30
2004.00,90.29
2003.00,90.28
2002.00,90.30
2001.00,90.31
2000.00,90.31
1999.00,90.29
1998.00,90.28
1997.00,90.31
1996.00,90.35
1995.00,90.40
1994.00,90.43
1993.00,90.41
1992.00,90.40
1991.00,90.43
1990.00,90.47
1989.00,90.46
1988.00,90.38
1987.00,90.31
1986.00,90.29
1985.00,90.29
1984.00,90.26
1983.00,90.21
1982.00,90.17
1981.00,90.14
1980.00,90.10
1979.00,90.10
1978.00,90.16
1977.00,90.28
1976.00,90.38
1975.00,90.43
1974.00,90.40
1973.00,90.31
1972.00,90.26
1971.00,90.30
1970.00,90.40
1969.00,90.46
1968.00,90.47
1967.00,90.49
1966.00,90.57
1965.00,90.66
1964.00,90.69
1963.00,90.67
1962.00,90.64
1961.00,90.63
1960.00,90.62
1959.00,90.64
1958.00,90.68
1957.00,90.70
1956.00,90.71
1955.00,90.73
1954.00,90.76
1953.00,90.76
1952.00,90.73
1951.00,90.69
1950.00,90.70
1949.00,90.74
1948.00,90.78
1947.00,90.80
1946.00,90.83
1945.00,90.86
1944.00,90.88
1943.00,90.90
1942.00,90.94
1941.00,90.97
1940.00,90.97
1939.00,90.94
1938.00,90.90
1937.00,90.88
1936.00,90.89
1935.00,90.94
1934.00,91.01
1933.00,91.05
1932.00,91.07
1931.00,91.08
1930.00,91.08
1929.00,91.07
1928.00,91.06
1927.00,91.06
1926.00,91.06
1925.00,91.04
1924.00,91.01
1923.00,91.00
1922.00,91.02
1921.00,91.04
1920.00,91.01
1919.00,90.97
1918.00,90.93
1917.00,90.93
1916.00,90.97
1915.00,91.05
1914.00,91.13
1913.00,91.18
1912.00,91.18
1911.00,91.15
1910.00,91.11
1909.00,91.08
1908.00,91.07
1907.00,91.09
1906.00,91.12
1905.00,91.15
1904.00,91.16
1903.00,91.17
1902.00,91.19
1901.00,91.19
1900.00,91.18
1899.00,91.16
1898.00,91.14
1897.00,91.14
1896.00,91.16
1895.00,91.20
1894.00,91.25
1893.00,91.28
1892.00,91.27
1891.00,91.25
1890.00,91.22
1889.00,91.19
1888.00,91.17
1887.00,91.20
1886.00,91.24
1885.00,91.24
1884.00,91.19
1883.00,91.15
1882.00,91.14
1881.00,91.17
1880.00,91.19
1879.00,91.20
1878.00,91.18
1877.00,91.15
1876.00,91.12
1875.00,91.12
1874.00,91.15
1873.00,91.17
1872.00,91.15
1871.00,91.12
1870.00,91.11
1869.00,91.12
1868.00,91.12
1867.00,91.13
1866.00,91.14
1865.00,91.14
1864.00,91.15
1863.00,91.16
1862.00,91.19
1861.00,91.19
1860.00,91.16
1859.00,91.12
1858.00,91.10
1857.00,91.13
1856.00,91.18
1855.00,91.22
1854.00,91.23
1853.00,91.21
1852.00,91.18
1851.00,91.16
1850.00,91.13
1849.00,91.10
1848.00,91.05
1847.00,91.01
1846.00,91.01
1845.00,91.02
1844.00,91.04
1843.00,91.05
1842.00,91.07
1841.00,91.09
1840.00,91.09
1839.00,91.10
1838.00,91.12
1837.00,91.15
1836.00,91.17
1835.00,91.17
1834.00,91.17
1833.00,91.14
1832.00,91.08
1831.00,91.04
1830.00,91.05
1829.00,91.09
1828.00,91.12
1827.00,91.12
1826.00,91.12
1825.00,91.09
1824.00,91.07
1823.00,91.05
1822.00,91.05
1821.00,91.06
1820.00,91.06
1819.00,91.06
1818.00,91.07
1817.00,91.06
1816.00,91.05
1815.00,91.06
1814.00,91.06
1813.00,91.05
1812.00,91.02
1811.00,90.98
1810.00,90.97
1809.00,90.96
1808.00,90.95
1807.00,90.94
1806.00,90.93
1805.00,90.89
1804.00,90.83
1803.00,90.78
1802.00,90.75
1801.00,90.75
1800.00,90.75
1799.00,90.75
1798.00,90.75
1797.00,90.72
1796.00,90.68
1795.00,90.63
1794.00,90.59
1793.00,90.58
1792.00,90.60
1791.00,90.64
1790.00,90.68
1789.00,90.69
1788.00,90.67
1787.00,90.64
1786.00,90.60
1785.00,90.57
1784.00,90.53
1783.00,90.51
1782.00,90.50
1781.00,90.48
1780.00,90.45
1779.00,90.42
1778.00,90.42
1777.00,90.40
1776.00,90.37
1775.00,90.33
1774.00,90.27
1773.00,90.21
1772.00,90.16
1771.00,90.16
1770.00,90.18
1769.00,90.19
1768.00,90.18
1767.00,90.17
1766.00,90.14
1765.00,90.09
1764.00,90.02
1763.00,89.94
1762.00,89.90
1761.00,89.87
1760.00,89.84
1759.00,89.80
1758.00,89.76
1757.00,89.70
1756.00,89.65
1755.00,89.61
1754.00,89.57
1753.00,89.53
1752.00,89.46
1751.00,89.39
1750.00,89.32
1749.00,89.25
1748.00,89.15
1747.00,89.06
1746.00,88.99
1745.00,88.93
1744.00,88.87
1743.00,88.82
1742.00,88.78
1741.00,88.70
1740.00,88.58
1739.00,88.49
1738.00,88.44
1737.00,88.40
1736.00,88.30
1735.00,88.12
1734.00,87.90
1733.00,87.79
1732.00,87.76
1731.00,87.74
1730.00,87.69
1729.00,87.59
1728.00,87.48
1727.00,87.38
1726.00,87.29
1725.00,87.16
1724.00,87.01
1723.00,86.86
1722.00,86.76
1721.00,86.68
1720.00,86.56
1719.00,86.38
1718.00,86.15
1717.00,85.91
1716.00,85.72
1715.00,85.58
1714.00,85.47
1713.00,85.34
1712.00,85.17
1711.00,84.98
1710.00,84.80
1709.00,84.63
1708.00,84.44
1707.00,84.22
1706.00,83.97
1705.00,83.70
1704.00,83.48
1703.00,83.33
1702.00,83.20
1701.00,82.98
1700.00,82.62
1699.00,82.32
1698.00,82.15
1697.00,81.94
1696.00,81.57
1695.00,81.19
1694.00,80.94
1693.00,80.75
1692.00,80.55
1691.00,80.30
1690.00,80.01
1689.00,79.69
1688.00,79.39
1687.00,79.15
1686.00,78.93
1685.00,78.56
1684.00,77.97
1683.00,77.51
1682.00,77.27
1681.00,77.06
1680.00,76.81
1679.00,76.56
1678.00,76.32
1677.00,76.04
1676.00,75.65
1675.00,75.21
1674.00,74.87
1673.00,74.64
1672.00,74.41
1671.00,74.10
1670.00,73.71
1669.00,73.29
1668.00,72.93
1667.00,72.67
1666.00,72.47
1665.00,72.27
1664.00,71.97
1663.00,71.57
1662.00,71.19
1661.00,70.89
1660.00,70.64
1659.00,70.39
1658.00,70.17
1657.00,69.98
1656.00,69.81
1655.00,69.62
1654.00,69.27
1653.00,68.65
1652.00,68.21
1651.00,68.07
1650.00,68.02
1649.00,67.93
1648.00,67.70
1647.00,67.34
1646.00,67.11
1645.00,67.02
1644.00,66.96
1643.00,66.88
1642.00,66.80
1641.00,66.71
1640.00,66.62
1639.00,66.51
1638.00,66.43
1637.00,66.37
1636.00,66.32
1635.00,66.33
1634.00,66.41
1633.00,66.51
1632.00,66.58
1631.00,66.64
1630.00,66.72
1629.00,66.85
1628.00,66.98
1627.00,67.12
1626.00,67.26
1625.00,67.44
1624.00,67.66
1623.00,67.92
1622.00,68.20
1621.00,68.43
1620.00,68.60
1619.00,68.77
1618.00,69.01
1617.00,69.37
1616.00,69.77
1615.00,70.09
1614.00,70.37
1613.00,70.64
1612.00,70.91
1611.00,71.18
1610.00,71.45
1609.00,71.74
1608.00,72.05
1607.00,72.35
1606.00,72.66
1605.00,72.95
1604.00,73.23
1603.00,73.49
1602.00,73.74
1601.00,73.99
1600.00,74.21
1599.00,74.42
1598.00,74.62
1597.00,74.84
1596.00,75.07
1595.00,75.31
1594.00,75.52
1593.00,75.72
1592.00,75.91
1591.00,76.10
1590.00,76.28
1589.00,76.44
1588.00,76.59
1587.00,76.72
1586.00,76.85
1585.00,76.98
1584.00,77.12
1583.00,77.24
1582.00,77.36
1581.00,77.47
1580.00,77.56
1579.00,77.61
1578.00,77.64
1577.00,77.66
1576.00,77.74
1575.00,77.86
1574.00,77.97
1573.00,78.05
1572.00,78.11
1571.00,78.17
1570.00,78.24
1569.00,78.31
1568.00,78.36
1567.00,78.39
1566.00,78.43
1565.00,78.48
1564.00,78.53
1563.00,78.57
1562.00,78.59
1561.00,78.59
1560.00,78.58
1559.00,78.55
1558.00,78.55
1557.00,78.59
1556.00,78.62
1555.00,78.64
1554.00,78.65
1553.00,78.67
1552.00,78.71
1551.00,78.75
1550.00,78.78
1549.00,78.82
1548.00,78.86
1547.00,78.87
1546.00,78.88
1545.00,78.90
1544.00,78.95
1543.00,79.01
1542.00,79.05
1541.00,79.11
1540.00,79.24
1539.00,79.38
1538.00,79.48
1537.00,79.55
1536.00,79.62
1535.00,79.69
1534.00,79.80
1533.00,79.94
1532.00,80.07
1531.00,80.15
1530.00,80.22
1529.00,80.29
1528.00,80.37
1527.00,80.44
1526.00,80.49
1525.00,80.52
1524.00,80.55
1523.00,80.60
1522.00,80.68
1521.00,80.79
1520.00,80.88
1519.00,80.94
1518.00,80.99
1517.00,81.08
1516.00,81.21
1515.00,81.33
1514.00,81.42
1513.00,81.48
1512.00,81.52
1511.00,81.54
1510.00,81.56
1509.00,81.57
1508.00,81.58
1507.00,81.68
1506.00,81.85
1505.00,81.96
1504.00,82.02
1503.00,82.06
1502.00,82.09
1501.00,82.12
1500.00,82.13
1499.00,82.13
1498.00,82.14
1497.00,82.17
1496.00,82.25
1495.00,82.33
1494.00,82.39
1493.00,82.42
1492.00,82.42
1491.00,82.38
1490.00,82.34
1489.00,82.33
1488.00,82.37
1487.00,82.42
1486.00,82.46
1485.00,82.49
1484.00,82.51
1483.00,82.51
1482.00,82.50
1481.00,82.50
1480.00,82.49
1479.00,82.50
1478.00,82.49
1477.00,82.48
1476.00,82.45
1475.00,82.39
1474.00,82.30
1473.00,82.20
1472.00,82.15
1471.00,82.17
1470.00,82.21
1469.00,82.23
1468.00,82.22
1467.00,82.19
1466.00,82.15
1465.00,82.13
1464.00,82.14
1463.00,82.16
1462.00,82.17
1461.00,82.17
1460.00,82.14
1459.00,82.08
1458.00,82.01
1457.00,81.99
1456.00,82.03
1455.00,82.09
1454.00,82.13
1453.00,82.17
1452.00,82.21
1451.00,82.24
1450.00,82.26
1449.00,82.27
1448.00,82.27
1447.00,82.28
1446.00,82.30
1445.00,82.32
1444.00,82.34
1443.00,82.35
1442.00,82.37
1441.00,82.39
1440.00,82.42
1439.00,82.43
1438.00,82.44
1437.00,82.44
1436.00,82.44
1435.00,82.45
1434.00,82.46
1433.00,82.47
1432.00,82.47
1431.00,82.45
1430.00,82.43
1429.00,82.41
1428.00,82.41
1427.00,82.42
1426.00,82.40
1425.00,82.37
1424.00,82.33
1423.00,82.31
1422.00,82.31
1421.00,82.31
1420.00,82.27
1419.00,82.18
1418.00,82.09
1417.00,82.04
1416.00,82.02
1415.00,82.01
1414.00,81.99
1413.00,81.97
1412.00,81.95
1411.00,81.94
1410.00,81.93
1409.00,81.94
1408.00,81.94
1407.00,81.94
1406.00,81.94
1405.00,81.97
1404.00,82.02
1403.00,82.09
1402.00,82.15
1401.00,82.18
1400.00,82.21
1399.00,82.24
1398.00,82.28
1397.00,82.31
1396.00,82.35
1395.00,82.40
1394.00,82.47
1393.00,82.54
1392.00,82.60
1391.00,82.64
1390.00,82.68
1389.00,82.72
1388.00,82.76
1387.00,82.81
1386.00,82.84
1385.00,82.86
1384.00,82.87
1383.00,82.88
1382.00,82.88
1381.00,82.90
1380.00,82.92
1379.00,82.95
1378.00,82.97
1377.00,82.98
1376.00,82.98
1375.00,82.97
1374.00,82.97
1373.00,83.00
1372.00,83.03
1371.00,83.05
1370.00,83.05
1369.00,83.06
1368.00,83.08
1367.00,83.12
1366.00,83.14
1365.00,83.14
1364.00,83.11
1363.00,83.06
1362.00,83.04
1361.00,83.07
1360.00,83.12
1359.00,83.16
1358.00,83.19
1357.00,83.21
1356.00,83.22
1355.00,83.22
1354.00,83.22
1353.00,83.22
1352.00,83.22
1351.00,83.21
1350.00,83.19
1349.00,83.19
1348.00,83.19
1347.00,83.21
1346.00,83.23
1345.00,83.26
1344.00,83.29
1343.00,83.31
1342.00,83.31
1341.00,83.31
1340.00,83.31
1339.00,83.32
1338.00,83.33
1337.00,83.34
1336.00,83.35
1335.00,83.36
1334.00,83.36
1333.00,83.36
1332.00,83.36
1331.00,83.36
1330.00,83.37
1329.00,83.39
1328.00,83.40
1327.00,83.41
1326.00,83.40
1325.00,83.39
1324.00,83.39
1323.00,83.38
1322.00,83.37
1321.00,83.33
1320.00,83.29
1319.00,83.27
1318.00,83.27
1317.00,83.28
1316.00,83.29
1315.00,83.27
1314.00,83.25
1313.00,83.23
1312.00,83.24
1311.00,83.26
1310.00,83.27
1309.00,83.27
1308.00,83.27
1307.00,83.27
1306.00,83.27
1305.00,83.28
1304.00,83.29
1303.00,83.30
1302.00,83.31
1301.00,83.32
1300.00,83.33
1299.00,83.33
1298.00,83.34
1297.00,83.35
1296.00,83.36
1295.00,83.36
1294.00,83.36
1293.00,83.36
1292.00,83.35
1291.00,83.36
1290.00,83.37
1289.00,83.38
1288.00,83.39
1287.00,83.40
1286.00,83.42
1285.00,83.45
1284.00,83.47
1283.00,83.46
1282.00,83.44
1281.00,83.42
1280.00,83.42
1279.00,83.45
1278.00,83.47
1277.00,83.48
1276.00,83.48
1275.00,83.49
1274.00,83.50
1273.00,83.52
1272.00,83.53
1271.00,83.52
1270.00,83.50
1269.00,83.49
1268.00,83.50
1267.00,83.51
1266.00,83.50
1265.00,83.48
1264.00,83.44
1263.00,83.39
1262.00,83.35
1261.00,83.32
1260.00,83.31
1259.00,83.31
1258.00,83.30
1257.00,83.29
1256.00,83.27
1255.00,83.24
1254.00,83.23
1253.00,83.21
1252.00,83.17
1251.00,83.11
1250.00,83.04
1249.00,83.00
1248.00,82.98
1247.00,82.97
1246.00,82.96
1245.00,82.94
1244.00,82.91
1243.00,82.90
1242.00,82.91
1241.00,82.92
1240.00,82.93
1239.00,82.93
1238.00,82.92
1237.00,82.91
1236.00,82.91
1235.00,82.93
1234.00,82.96
1233.00,82.99
1232.00,83.02
1231.00,83.03
1230.00,83.04
1229.00,83.04
1228.00,83.06
1227.00,83.08
1226.00,83.11
1225.00,83.15
1224.00,83.17
1223.00,83.17
1222.00,83.15
1221.00,83.13
1220.00,83.12
1219.00,83.12
1218.00,83.13
1217.00,83.15
1216.00,83.19
1215.00,83.22
1214.00,83.24
1213.00,83.24
1212.00,83.23
1211.00,83.22
1210.00,83.23
1209.00,83.24
1208.00,83.27
1207.00,83.28
1206.00,83.28
1205.00,83.28
1204.00,83.29
1203.00,83.30
1202.00,83.33
1201.00,83.35
1200.00,83.38
1199.00,83.40
1198.00,83.43
1197.00,83.44
1196.00,83.44
1195.00,83.43
1194.00,83.41
1193.00,83.40
1192.00,83.41
1191.00,83.41
1190.00,83.42
1189.00,83.42
1188.00,83.42
1187.00,83.41
1186.00,83.40
1185.00,83.39
1184.00,83.38
1183.00,83.37
1182.00,83.37
1181.00,83.38
1180.00,83.39
1179.00,83.39
1178.00,83.38
1177.00,83.37
1176.00,83.35
1175.00,83.34
1174.00,83.33
1173.00,83.32
1172.00,83.30
1171.00,83.27
1170.00,83.27
1169.00,83.27
1168.00,83.29
1167.00,83.30
1166.00,83.31
1165.00,83.30
1164.00,83.28
1163.00,83.26
1162.00,83.26
1161.00,83.26
1160.00,83.27
1159.00,83.26
1158.00,83.24
1157.00,83.21
1156.00,83.17
1155.00,83.13
1154.00,83.10
1153.00,83.10
1152.00,83.12
1151.00,83.14
1150.00,83.13
1149.00,83.10
1148.00,83.06
1147.00,83.00
1146.00,82.95
1145.00,82.91
1144.00,82.91
1143.00,82.93
1142.00,82.96
1141.00,82.97
1140.00,82.96
1139.00,82.93
1138.00,82.90
1137.00,82.87
1136.00,82.84
1135.00,82.82
1134.00,82.80
1133.00,82.77
1132.00,82.73
1131.00,82.69
1130.00,82.65
1129.00,82.62
1128.00,82.60
1127.00,82.58
1126.00,82.58
1125.00,82.56
1124.00,82.53
1123.00,82.49
1122.00,82.42
1121.00,82.37
1120.00,82.34
1119.00,82.33
1118.00,82.31
1117.00,82.28
1116.00,82.24
1115.00,82.21
1114.00,82.20
1113.00,82.21
1112.00,82.21
1111.00,82.18
1110.00,82.12
1109.00,82.07
1108.00,82.05
1107.00,82.05
1106.00,82.04
1105.00,82.01
1104.00,81.98
1103.00,81.94
1102.00,81.90
1101.00,81.85
1100.00,81.82
1099.00,81.81
1098.00,81.81
1097.00,81.80
1096.00,81.77
1095.00,81.74
1094.00,81.70
1093.00,81.66
1092.00,81.62
1091.00,81.59
1090.00,81.56
1089.00,81.53
1088.00,81.50
1087.00,81.46
1086.00,81.43
1085.00,81.42
1084.00,81.41
1083.00,81.37
1082.00,81.32
1081.00,81.28
1080.00,81.26
1079.00,81.26
1078.00,81.27
1077.00,81.25
1076.00,81.20
1075.00,81.15
1074.00,81.11
1073.00,81.08
1072.00,81.08
1071.00,81.08
1070.00,81.09
1069.00,81.09
1068.00,81.07
1067.00,81.05
1066.00,81.03
1065.00,80.99
1064.00,80.93
1063.00,80.87
1062.00,80.82
1061.00,80.80
1060.00,80.78
1059.00,80.75
1058.00,80.72
1057.00,80.69
1056.00,80.67
1055.00,80.63
1054.00,80.58
1053.00,80.52
1052.00,80.47
1051.00,80.45
1050.00,80.46
1049.00,80.49
1048.00,80.52
1047.00,80.53
1046.00,80.54
1045.00,80.54
1044.00,80.55
1043.00,80.54
1042.00,80.51
1041.00,80.46
1040.00,80.42
1039.00,80.42
1038.00,80.43
1037.00,80.43
1036.00,80.41
1035.00,80.39
1034.00,80.37
1033.00,80.36
1032.00,80.36
1031.00,80.34
1030.00,80.32
1029.00,80.29
1028.00,80.27
1027.00,80.28
1026.00,80.30
1025.00,80.32
1024.00,80.32
1023.00,80.31
1022.00,80.30
1021.00,80.29
1020.00,80.27
1019.00,80.25
1018.00,80.21
1017.00,80.17
1016.00,80.14
1015.00,80.13
1014.00,80.15
1013.00,80.16
1012.00,80.16
1011.00,80.14
1010.00,80.10
1009.00,80.05
1008.00,79.99
1007.00,79.96
1006.00,79.96
1005.00,79.98
1004.00,79.99
1003.00,79.99
1002.00,79.97
1001.00,79.94
1000.00,79.91
999.00,79.88
998.00,79.85
997.00,79.80
996.00,79.73
995.00,79.68
994.00,79.63
993.00,79.60
992.00,79.58
991.00,79.55
990.00,79.53
989.00,79.52
988.00,79.52
987.00,79.50
986.00,79.46
985.00,79.40
984.00,79.33
983.00,79.29
982.00,79.26
981.00,79.23
980.00,79.18
979.00,79.13
978.00,79.09
977.00,79.05
976.00,79.00
975.00,78.96
974.00,78.92
973.00,78.88
972.00,78.85
971.00,78.82
970.00,78.78
969.00,78.73
968.00,78.68
967.00,78.66
966.00,78.66
965.00,78.69
964.00,78.71
963.00,78.72
962.00,78.71
961.00,78.69
960.00,78.65
959.00,78.62
958.00,78.61
957.00,78.61
956.00,78.60
955.00,78.60
954.00,78.59
953.00,78.58
952.00,78.55
951.00,78.51
950.00,78.45
949.00,78.39
948.00,78.35
947.00,78.32
946.00,78.29
945.00,78.26
944.00,78.21
943.00,78.15
942.00,78.09
941.00,78.03
940.00,77.95
939.00,77.86
938.00,77.78
937.00,77.71
936.00,77.67
935.00,77.64
934.00,77.61
933.00,77.56
932.00,77.49
931.00,77.41
930.00,77.32
929.00,77.23
928.00,77.13
927.00,77.03
926.00,76.95
925.00,76.87
924.00,76.80
923.00,76.73
922.00,76.66
921.00,76.61
920.00,76.54
919.00,76.45
918.00,76.34
917.00,76.21
916.00,76.07
915.00,75.91
914.00,75.78
913.00,75.67
912.00,75.57
911.00,75.48
910.00,75.39
909.00,75.29
908.00,75.19
907.00,75.11
906.00,75.06
905.00,75.00
904.00,74.91
903.00,74.78
902.00,74.63
901.00,74.48
900.00,74.36
899.00,74.25
898.00,74.14
897.00,74.05
896.00,73.97
895.00,73.88
894.00,73.78
893.00,73.62
892.00,73.45
891.00,73.28
890.00,73.14
889.00,73.01
888.00,72.87
887.00,72.71
886.00,72.55
885.00,72.41
884.00,72.30
883.00,72.21
882.00,72.12
881.00,71.98
880.00,71.79
879.00,71.57
878.00,71.35
877.00,71.16
876.00,71.01
875.00,70.93
874.00,70.88
873.00,70.81
872.00,70.69
871.00,70.55
870.00,70.41
869.00,70.26
868.00,70.09
867.00,69.92
866.00,69.76
865.00,69.64
864.00,69.54
863.00,69.43
862.00,69.29
861.00,69.15
860.00,69.02
859.00,68.90
858.00,68.80
857.00,68.69
856.00,68.56
855.00,68.40
854.00,68.24
853.00,68.10
852.00,67.97
851.00,67.82
850.00,67.62
849.00,67.40
848.00,67.20
847.00,67.05
846.00,66.92
845.00,66.77
844.00,66.59
843.00,66.43
842.00,66.28
841.00,66.15
840.00,66.01
839.00,65.89
838.00,65.77
837.00,65.63
836.00,65.45
835.00,65.26
834.00,65.10
833.00,64.97
832.00,64.83
831.00,64.69
830.00,64.53
829.00,64.39
828.00,64.27
827.00,64.19
826.00,64.11
825.00,63.97
824.00,63.76
823.00,63.54
822.00,63.34
821.00,63.18
820.00,63.04
819.00,62.90
818.00,62.76
817.00,62.61
816.00,62.45
815.00,62.30
814.00,62.19
813.00,62.10
812.00,62.00
811.00,61.90
810.00,61.76
809.00,61.58
808.00,61.39
807.00,61.25
806.00,61.14
805.00,61.04
804.00,60.90
803.00,60.74
802.00,60.60
801.00,60.47
800.00,60.34
799.00,60.21
798.00,60.07
797.00,59.91
796.00,59.74
795.00,59.58
794.00,59.45
793.00,59.35
792.00,59.23
791.00,59.10
790.00,58.98
789.00,58.85
788.00,58.74
787.00,58.64
786.00,58.51
785.00,58.36
784.00,58.20
783.00,58.07
782.00,57.97
781.00,57.87
780.00,57.74
779.00,57.60
778.00,57.46
777.00,57.30
776.00,57.14
775.00,57.03
774.00,56.94
773.00,56.83
772.00,56.70
771.00,56.60
770.00,56.54
769.00,56.48
768.00,56.36
767.00,56.21
766.00,56.05
765.00,55.90
764.00,55.75
763.00,55.59
762.00,55.43
761.00,55.26
760.00,55.12
759.00,55.06
758.00,55.05
757.00,55.01
756.00,54.91
755.00,54.76
754.00,54.58
753.00,54.40
752.00,54.23
751.00,54.12
750.00,54.06
749.00,53.99
748.00,53.86
747.00,53.73
746.00,53.61
745.00,53.50
744.00,53.37
743.00,53.21
742.00,53.07
741.00,52.94
740.00,52.83
739.00,52.74
738.00,52.68
737.00,52.60
736.00,52.50
735.00,52.40
734.00,52.32
733.00,52.24
732.00,52.16
731.00,52.09
730.00,52.03
729.00,51.93
728.00,51.80
727.00,51.66
726.00,51.58
725.00,51.51
724.00,51.42
723.00,51.30
722.00,51.17
721.00,51.02
720.00,50.87
719.00,50.75
718.00,50.68
717.00,50.62
716.00,50.54
715.00,50.45
714.00,50.36
713.00,50.25
712.00,50.14
711.00,50.05
710.00,49.98
709.00,49.91
708.00,49.82
707.00,49.71
706.00,49.62
705.00,49.55
704.00,49.49
703.00,49.46
702.00,49.41
701.00,49.28
700.00,49.07
699.00,48.86
698.00,48.72
697.00,48.65
696.00,48.63
695.00,48.63
694.00,48.61
693.00,48.55
692.00,48.44
691.00,48.36
690.00,48.32
689.00,48.28
688.00,48.21
687.00,48.13
686.00,48.08
685.00,48.00
684.00,47.87
683.00,47.74
682.00,47.66
681.00,47.61
680.00,47.53
679.00,47.39
678.00,47.24
677.00,47.12
676.00,47.06
675.00,47.07
674.00,47.11
673.00,47.10
672.00,47.05
671.00,47.03
670.00,47.04
669.00,46.99
668.00,46.78
667.00,46.57
666.00,46.49
665.00,46.46
664.00,46.44
663.00,46.44
662.00,46.44
661.00,46.39
660.00,46.27
659.00,46.16
658.00,46.10
657.00,46.04
656.00,45.91
655.00,45.80
654.00,45.77
653.00,45.77
652.00,45.74
651.00,45.64
650.00,45.51
649.00,45.35
648.00,45.19
647.00,45.12
646.00,45.12
645.00,45.08
644.00,45.00
643.00,44.96
642.00,44.98
641.00,45.01
640.00,45.06
639.00,45.18
638.00,45.29
637.00,45.17
636.00,44.81
635.00,44.57
634.00,44.64
633.00,44.86
632.00,44.96
631.00,44.91
630.00,44.78
629.00,44.56
628.00,44.26
627.00,44.10
626.00,44.24
625.00,44.49
624.00,44.61
623.00,44.63
622.00,44.74
621.00,44.95
620.00,45.16
619.00,45.32
618.00,45.39
617.00,45.25
616.00,44.96
615.00,44.70
614.00,44.50
613.00,44.12
612.00,43.61
611.00,43.31
610.00,43.40
609.00,43.64
608.00,43.82
607.00,43.98
606.00,44.06
605.00,43.81
604.00,43.26
603.00,42.89
602.00,43.03
601.00,43.48
600.00,43.89
599.00,44.14
598.00,44.24
597.00,44.11
596.00,43.78
595.00,43.61
594.00,43.87
593.00,44.34
592.00,44.55
591.00,44.37
590.00,43.97
589.00,43.49
588.00,43.07
587.00,43.02
586.00,43.50
585.00,44.14
584.00,44.60
583.00,44.92
582.00,45.33
581.00,45.74
580.00,45.96
579.00,46.06
578.00,46.06
577.00,45.63
576.00,44.58
575.00,43.36
574.00,42.62
573.00,42.47
572.00,42.79
571.00,43.49
570.00,44.04
569.00,43.79
568.00,42.96
567.00,42.40
566.00,42.35
565.00,42.20
564.00,41.66
563.00,41.28
562.00,41.47
561.00,41.87
560.00,42.15
559.00,42.44
558.00,42.72
557.00,42.57
556.00,42.00
555.00,41.83
554.00,42.48
553.00,43.21
552.00,43.25
551.00,42.92
550.00,42.89
