Created as New Dataset,Sample 002 By Administrator Date Thursday, December 10 2020
cm-1,%T
4000.00,98.07
3999.00,98.10
3998.00,98.09
3997.00,98.04
3996.00,97.98
3995.00,97.92
3994.00,97.90
3993.00,97.93
3992.00,97.97
3991.00,97.99
3990.00,97.97
3989.00,97.91
3988.00,97.87
3987.00,97.86
3986.00,97.89
3985.00,97.92
3984.00,97.94
3983.00,97.93
3982.00,97.92
3981.00,97.91
3980.00,97.92
3979.00,97.92
3978.00,97.90
3977.00,97.88
3976.00,97.87
3975.00,97.88
3974.00,97.89
3973.00,97.92
3972.00,97.94
3971.00,97.97
3970.00,97.99
3969.00,97.98
3968.00,97.96
3967.00,97.92
3966.00,97.89
3965.00,97.88
3964.00,97.89
3963.00,97.89
3962.00,97.89
3961.00,97.90
3960.00,97.93
3959.00,97.98
3958.00,98.03
3957.00,98.06
3956.00,98.07
3955.00,98.06
3954.00,98.04
3953.00,98.03
3952.00,98.03
3951.00,98.03
3950.00,98.02
3949.00,98.01
3948.00,97.98
3947.00,97.95
3946.00,97.94
3945.00,97.95
3944.00,97.96
3943.00,97.98
3942.00,97.99
3941.00,98.00
3940.00,98.01
3939.00,98.00
3938.00,97.99
3937.00,97.98
3936.00,97.97
3935.00,97.96
3934.00,97.96
3933.00,97.95
3932.00,97.94
3931.00,97.94
3930.00,97.96
3929.00,97.99
3928.00,98.02
3927.00,98.04
3926.00,98.04
3925.00,98.04
3924.00,98.03
3923.00,98.02
3922.00,98.01
3921.00,97.99
3920.00,97.97
3919.00,97.96
3918.00,97.95
3917.00,97.95
3916.00,97.96
3915.00,97.98
3914.00,98.01
3913.00,98.02
3912.00,98.02
3911.00,98.00
3910.00,97.97
3909.00,97.97
3908.00,98.01
3907.00,98.06
3906.00,98.12
3905.00,98.14
3904.00,98.13
3903.00,98.10
3902.00,98.07
3901.00,98.05
3900.00,98.02
3899.00,97.98
3898.00,97.94
3897.00,97.94
3896.00,97.97
3895.00,98.04
3894.00,98.13
3893.00,98.18
3892.00,98.19
3891.00,98.14
3890.00,98.09
3889.00,98.08
3888.00,98.10
3887.00,98.15
3886.00,98.18
3885.00,98.16
3884.00,98.08
3883.00,97.98
3882.00,97.90
3881.00,97.87
3880.00,97.91
3879.00,97.96
3878.00,97.99
3877.00,97.99
3876.00,97.96
3875.00,97.94
3874.00,97.94
3873.00,98.00
3872.00,98.09
3871.00,98.18
3870.00,98.19
3869.00,98.12
3868.00,98.02
3867.00,97.93
3866.00,97.88
3865.00,97.90
3864.00,97.97
3863.00,98.04
3862.00,98.09
3861.00,98.08
3860.00,98.03
3859.00,97.95
3858.00,97.88
3857.00,97.84
3856.00,97.82
3855.00,97.81
3854.00,97.77
3853.00,97.73
3852.00,97.72
3851.00,97.76
3850.00,97.82
3849.00,97.90
3848.00,97.97
3847.00,98.01
3846.00,98.02
3845.00,98.02
3844.00,98.02
3843.00,98.04
3842.00,98.05
3841.00,98.05
3840.00,98.03
3839.00,98.02
3838.00,98.01
3837.00,97.99
3836.00,97.95
3835.00,97.91
3834.00,97.89
3833.00,97.87
3832.00,97.87
3831.00,97.87
3830.00,97.89
3829.00,97.94
3828.00,97.99
3827.00,98.01
3826.00,97.97
3825.00,97.89
3824.00,97.82
3823.00,97.79
3822.00,97.83
3821.00,97.87
3820.00,97.89
3819.00,97.89
3818.00,97.90
3817.00,97.94
3816.00,97.96
3815.00,97.97
3814.00,97.98
3813.00,98.00
3812.00,98.02
3811.00,98.03
3810.00,98.03
3809.00,98.02
3808.00,98.02
3807.00,98.01
3806.00,97.98
3805.00,97.94
3804.00,97.92
3803.00,97.93
3802.00,97.98
3801.00,98.01
3800.00,97.98
3799.00,97.92
3798.00,97.88
3797.00,97.88
3796.00,97.91
3795.00,97.93
3794.00,97.94
3793.00,97.94
3792.00,97.93
3791.00,97.91
3790.00,97.90
3789.00,97.88
3788.00,97.86
3787.00,97.84
3786.00,97.84
3785.00,97.86
3784.00,97.87
3783.00,97.86
3782.00,97.82
3781.00,97.78
3780.00,97.76
3779.00,97.78
3778.00,97.81
3777.00,97.83
3776.00,97.82
3775.00,97.80
3774.00,97.78
3773.00,97.79
3772.00,97.81
3771.00,97.83
3770.00,97.83
3769.00,97.78
3768.00,97.72
3767.00,97.68
3766.00,97.69
3765.00,97.75
3764.00,97.80
3763.00,97.82
3762.00,97.78
3761.00,97.71
3760.00,97.65
3759.00,97.62
3758.00,97.64
3757.00,97.67
3756.00,97.68
3755.00,97.67
3754.00,97.66
3753.00,97.67
3752.00,97.70
3751.00,97.66
3750.00,97.53
3749.00,97.41
3748.00,97.33
3747.00,97.30
3746.00,97.29
3745.00,97.27
3744.00,97.26
3743.00,97.30
3742.00,97.36
3741.00,97.43
3740.00,97.47
3739.00,97.47
3738.00,97.41
3737.00,97.31
3736.00,97.16
3735.00,97.02
3734.00,96.94
3733.00,96.95
3732.00,97.04
3731.00,97.15
3730.00,97.23
3729.00,97.28
3728.00,97.29
3727.00,97.26
3726.00,97.21
3725.00,97.13
3724.00,97.06
3723.00,97.02
3722.00,97.03
3721.00,97.05
3720.00,97.08
3719.00,97.10
3718.00,97.13
3717.00,97.15
3716.00,97.18
3715.00,97.19
3714.00,97.18
3713.00,97.14
3712.00,97.10
3711.00,97.05
3710.00,96.98
3709.00,96.91
3708.00,96.85
3707.00,96.81
3706.00,96.78
3705.00,96.75
3704.00,96.71
3703.00,96.64
3702.00,96.55
3701.00,96.46
3700.00,96.39
3699.00,96.33
3698.00,96.28
3697.00,96.23
3696.00,96.17
3695.00,96.10
3694.00,96.02
3693.00,95.93
3692.00,95.83
3691.00,95.70
3690.00,95.54
3689.00,95.38
3688.00,95.28
3687.00,95.22
3686.00,95.18
3685.00,95.14
3684.00,95.08
3683.00,94.98
3682.00,94.85
3681.00,94.70
3680.00,94.59
3679.00,94.53
3678.00,94.51
3677.00,94.43
3676.00,94.22
3675.00,93.96
3674.00,93.79
3673.00,93.74
3672.00,93.73
3671.00,93.68
3670.00,93.51
3669.00,93.26
3668.00,93.04
3667.00,92.86
3666.00,92.74
3665.00,92.64
3664.00,92.56
3663.00,92.44
3662.00,92.29
3661.00,92.11
3660.00,91.93
3659.00,91.73
3658.00,91.51
3657.00,91.27
3656.00,91.05
3655.00,90.89
3654.00,90.77
3653.00,90.62
3652.00,90.41
3651.00,90.11
3650.00,89.76
3649.00,89.42
3648.00,89.16
3647.00,89.00
3646.00,88.92
3645.00,88.88
3644.00,88.83
3643.00,88.75
3642.00,88.63
3641.00,88.50
3640.00,88.38
3639.00,88.27
3638.00,88.16
3637.00,88.03
3636.00,87.89
3635.00,87.71
3634.00,87.52
3633.00,87.36
3632.00,87.25
3631.00,87.15
3630.00,86.98
3629.00,86.66
3628.00,86.32
3627.00,86.10
3626.00,85.97
3625.00,85.90
3624.00,85.84
3623.00,85.80
3622.00,85.74
3621.00,85.62
3620.00,85.40
3619.00,85.13
3618.00,84.89
3617.00,84.72
3616.00,84.60
3615.00,84.48
3614.00,84.33
3613.00,84.16
3612.00,84.00
3611.00,83.82
3610.00,83.61
3609.00,83.36
3608.00,83.13
3607.00,82.97
3606.00,82.89
3605.00,82.84
3604.00,82.77
3603.00,82.65
3602.00,82.49
3601.00,82.30
3600.00,82.13
3599.00,81.98
3598.00,81.86
3597.00,81.73
3596.00,81.57
3595.00,81.40
3594.00,81.25
3593.00,81.16
3592.00,81.10
3591.00,81.03
3590.00,80.93
3589.00,80.74
3588.00,80.46
3587.00,80.16
3586.00,79.92
3585.00,79.72
3584.00,79.56
3583.00,79.42
3582.00,79.31
3581.00,79.20
3580.00,79.09
3579.00,78.95
3578.00,78.79
3577.00,78.62
3576.00,78.44
3575.00,78.24
3574.00,78.03
3573.00,77.83
3572.00,77.67
3571.00,77.56
3570.00,77.47
3569.00,77.34
3568.00,77.12
3567.00,76.85
3566.00,76.62
3565.00,76.46
3564.00,76.34
3563.00,76.22
3562.00,76.08
3561.00,75.95
3560.00,75.83
3559.00,75.72
3558.00,75.58
3557.00,75.43
3556.00,75.26
3555.00,75.10
3554.00,74.95
3553.00,74.80
3552.00,74.63
3551.00,74.46
3550.00,74.29
3549.00,74.13
3548.00,73.96
3547.00,73.78
3546.00,73.59
3545.00,73.39
3544.00,73.19
3543.00,73.00
3542.00,72.84
3541.00,72.68
3540.00,72.54
3539.00,72.41
3538.00,72.28
3537.00,72.14
3536.00,71.99
3535.00,71.81
3534.00,71.65
3533.00,71.50
3532.00,71.37
3531.00,71.23
3530.00,71.06
3529.00,70.85
3528.00,70.65
3527.00,70.47
3526.00,70.32
3525.00,70.19
3524.00,70.03
3523.00,69.86
3522.00,69.68
3521.00,69.53
3520.00,69.40
3519.00,69.29
3518.00,69.18
3517.00,69.06
3516.00,68.93
3515.00,68.80
3514.00,68.67
3513.00,68.56
3512.00,68.42
3511.00,68.24
3510.00,68.02
3509.00,67.79
3508.00,67.60
3507.00,67.43
3506.00,67.25
3505.00,67.07
3504.00,66.89
3503.00,66.74
3502.00,66.61
3501.00,66.51
3500.00,66.42
3499.00,66.32
3498.00,66.21
3497.00,66.07
3496.00,65.91
3495.00,65.73
3494.00,65.55
3493.00,65.37
3492.00,65.20
3491.00,65.03
3490.00,64.87
3489.00,64.71
3488.00,64.58
3487.00,64.46
3486.00,64.34
3485.00,64.22
3484.00,64.08
3483.00,63.92
3482.00,63.75
3481.00,63.61
3480.00,63.47
3479.00,63.32
3478.00,63.15
3477.00,62.98
3476.00,62.83
3475.00,62.69
3474.00,62.57
3473.00,62.45
3472.00,62.33
3471.00,62.20
3470.00,62.07
3469.00,61.94
3468.00,61.81
3467.00,61.67
3466.00,61.55
3465.00,61.43
3464.00,61.33
3463.00,61.22
3462.00,61.07
3461.00,60.88
3460.00,60.68
3459.00,60.51
3458.00,60.38
3457.00,60.26
3456.00,60.15
3455.00,60.04
3454.00,59.92
3453.00,59.78
3452.00,59.65
3451.00,59.52
3450.00,59.39
3449.00,59.26
3448.00,59.12
3447.00,58.98
3446.00,58.85
3445.00,58.74
3444.00,58.63
3443.00,58.51
3442.00,58.37
3441.00,58.20
3440.00,58.04
3439.00,57.90
3438.00,57.76
3437.00,57.63
3436.00,57.49
3435.00,57.35
3434.00,57.21
3433.00,57.06
3432.00,56.91
3431.00,56.80
3430.00,56.75
3429.00,56.73
3428.00,56.72
3427.00,56.65
3426.00,56.54
3425.00,56.38
3424.00,56.21
3423.00,56.05
3422.00,55.91
3421.00,55.79
3420.00,55.71
3419.00,55.64
3418.00,55.55
3417.00,55.45
3416.00,55.31
3415.00,55.18
3414.00,55.05
3413.00,54.94
3412.00,54.86
3411.00,54.79
3410.00,54.71
3409.00,54.62
3408.00,54.52
3407.00,54.43
3406.00,54.33
3405.00,54.22
3404.00,54.11
3403.00,54.00
3402.00,53.92
3401.00,53.85
3400.00,53.80
3399.00,53.74
3398.00,53.66
3397.00,53.56
3396.00,53.46
3395.00,53.39
3394.00,53.34
3393.00,53.30
3392.00,53.28
3391.00,53.26
3390.00,53.25
3389.00,53.23
3388.00,53.19
3387.00,53.13
3386.00,53.03
3385.00,52.93
3384.00,52.82
3383.00,52.74
3382.00,52.66
3381.00,52.59
3380.00,52.52
3379.00,52.46
3378.00,52.43
3377.00,52.41
3376.00,52.39
3375.00,52.37
3374.00,52.34
3373.00,52.29
3372.00,52.21
3371.00,52.12
3370.00,52.04
3369.00,51.99
3368.00,51.97
3367.00,51.98
3366.00,51.97
3365.00,51.94
3364.00,51.87
3363.00,51.77
3362.00,51.69
3361.00,51.64
3360.00,51.61
3359.00,51.58
3358.00,51.55
3357.00,51.52
3356.00,51.51
3355.00,51.51
3354.00,51.50
3353.00,51.47
3352.00,51.43
3351.00,51.40
3350.00,51.37
3349.00,51.35
3348.00,51.35
3347.00,51.37
3346.00,51.39
3345.00,51.41
3344.00,51.41
3343.00,51.40
3342.00,51.40
3341.00,51.40
3340.00,51.38
3339.00,51.35
3338.00,51.30
3337.00,51.28
3336.00,51.29
3335.00,51.31
3334.00,51.33
3333.00,51.34
3332.00,51.35
3331.00,51.34
3330.00,51.32
3329.00,51.30
3328.00,51.27
3327.00,51.25
3326.00,51.24
3325.00,51.24
3324.00,51.25
3323.00,51.26
3322.00,51.29
3321.00,51.34
3320.00,51.39
3319.00,51.41
3318.00,51.38
3317.00,51.33
3316.00,51.30
3315.00,51.27
3314.00,51.24
3313.00,51.20
3312.00,51.16
3311.00,51.14
3310.00,51.13
3309.00,51.14
3308.00,51.15
3307.00,51.16
3306.00,51.14
3305.00,51.10
3304.00,51.06
3303.00,51.03
3302.00,51.03
3301.00,51.07
3300.00,51.11
3299.00,51.14
3298.00,51.14
3297.00,51.13
3296.00,51.12
3295.00,51.12
3294.00,51.10
3293.00,51.09
3292.00,51.07
3291.00,51.07
3290.00,51.08
3289.00,51.11
3288.00,51.13
3287.00,51.13
3286.00,51.11
3285.00,51.08
3284.00,51.06
3283.00,51.03
3282.00,51.01
3281.00,50.98
3280.00,50.97
3279.00,50.97
3278.00,51.02
3277.00,51.07
3276.00,51.10
3275.00,51.09
3274.00,51.05
3273.00,51.01
3272.00,51.00
3271.00,51.01
3270.00,51.02
3269.00,51.02
3268.00,51.01
3267.00,51.01
3266.00,51.02
3265.00,51.04
3264.00,51.08
3263.00,51.11
3262.00,51.14
3261.00,51.17
3260.00,51.19
3259.00,51.21
3258.00,51.23
3257.00,51.24
3256.00,51.24
3255.00,51.24
3254.00,51.24
3253.00,51.26
3252.00,51.32
3251.00,51.41
3250.00,51.52
3249.00,51.60
3248.00,51.65
3247.00,51.64
3246.00,51.60
3245.00,51.58
3244.00,51.61
3243.00,51.68
3242.00,51.80
3241.00,51.94
3240.00,52.04
3239.00,52.10
3238.00,52.12
3237.00,52.11
3236.00,52.11
3235.00,52.12
3234.00,52.17
3233.00,52.24
3232.00,52.32
3231.00,52.40
3230.00,52.45
3229.00,52.49
3228.00,52.53
3227.00,52.59
3226.00,52.65
3225.00,52.71
3224.00,52.77
3223.00,52.84
3222.00,52.92
3221.00,52.99
3220.00,53.05
3219.00,53.10
3218.00,53.14
3217.00,53.21
3216.00,53.30
3215.00,53.40
3214.00,53.51
3213.00,53.61
3212.00,53.69
3211.00,53.75
3210.00,53.80
3209.00,53.88
3208.00,53.98
3207.00,54.10
3206.00,54.23
3205.00,54.39
3204.00,54.55
3203.00,54.70
3202.00,54.81
3201.00,54.88
3200.00,54.92
3199.00,54.98
3198.00,55.06
3197.00,55.19
3196.00,55.34
3195.00,55.48
3194.00,55.59
3193.00,55.68
3192.00,55.76
3191.00,55.84
3190.00,55.95
3189.00,56.08
3188.00,56.24
3187.00,56.40
3186.00,56.55
3185.00,56.70
3184.00,56.86
3183.00,57.03
3182.00,57.20
3181.00,57.36
3180.00,57.52
3179.00,57.67
3178.00,57.81
3177.00,57.93
3176.00,58.03
3175.00,58.12
3174.00,58.25
3173.00,58.42
3172.00,58.63
3171.00,58.84
3170.00,59.01
3169.00,59.15
3168.00,59.29
3167.00,59.41
3166.00,59.51
3165.00,59.61
3164.00,59.73
3163.00,59.89
3162.00,60.08
3161.00,60.26
3160.00,60.42
3159.00,60.57
3158.00,60.73
3157.00,60.89
3156.00,61.04
3155.00,61.17
3154.00,61.28
3153.00,61.41
3152.00,61.58
3151.00,61.78
3150.00,61.99
3149.00,62.18
3148.00,62.36
3147.00,62.52
3146.00,62.66
3145.00,62.80
3144.00,62.94
3143.00,63.10
3142.00,63.28
3141.00,63.46
3140.00,63.64
3139.00,63.80
3138.00,63.93
3137.00,64.07
3136.00,64.22
3135.00,64.39
3134.00,64.57
3133.00,64.75
3132.00,64.93
3131.00,65.11
3130.00,65.29
3129.00,65.46
3128.00,65.60
3127.00,65.72
3126.00,65.84
3125.00,65.96
3124.00,66.11
3123.00,66.26
3122.00,66.41
3121.00,66.57
3120.00,66.72
3119.00,66.88
3118.00,67.02
3117.00,67.16
3116.00,67.28
3115.00,67.38
3114.00,67.49
3113.00,67.61
3112.00,67.73
3111.00,67.85
3110.00,67.98
3109.00,68.15
3108.00,68.34
3107.00,68.55
3106.00,68.75
3105.00,68.91
3104.00,69.05
3103.00,69.18
3102.00,69.31
3101.00,69.45
3100.00,69.57
3099.00,69.67
3098.00,69.79
3097.00,69.94
3096.00,70.10
3095.00,70.25
3094.00,70.38
3093.00,70.50
3092.00,70.64
3091.00,70.78
3090.00,70.91
3089.00,71.02
3088.00,71.12
3087.00,71.22
3086.00,71.32
3085.00,71.42
3084.00,71.54
3083.00,71.66
3082.00,71.77
3081.00,71.86
3080.00,71.96
3079.00,72.10
3078.00,72.25
3077.00,72.39
3076.00,72.49
3075.00,72.56
3074.00,72.62
3073.00,72.72
3072.00,72.85
3071.00,73.00
3070.00,73.14
3069.00,73.27
3068.00,73.41
3067.00,73.55
3066.00,73.70
3065.00,73.84
3064.00,73.97
3063.00,74.09
3062.00,74.23
3061.00,74.37
3060.00,74.51
3059.00,74.64
3058.00,74.75
3057.00,74.85
3056.00,74.95
3055.00,75.07
3054.00,75.20
3053.00,75.34
3052.00,75.48
3051.00,75.61
3050.00,75.75
3049.00,75.89
3048.00,76.05
3047.00,76.21
3046.00,76.34
3045.00,76.45
3044.00,76.58
3043.00,76.73
3042.00,76.89
3041.00,77.02
3040.00,77.11
3039.00,77.19
3038.00,77.28
3037.00,77.41
3036.00,77.55
3035.00,77.70
3034.00,77.85
3033.00,77.99
3032.00,78.12
3031.00,78.23
3030.00,78.31
3029.00,78.38
3028.00,78.49
3027.00,78.63
3026.00,78.80
3025.00,78.96
3024.00,79.10
3023.00,79.24
3022.00,79.38
3021.00,79.51
3020.00,79.62
3019.00,79.71
3018.00,79.80
3017.00,79.90
3016.00,80.01
3015.00,80.10
3014.00,80.17
3013.00,80.25
3012.00,80.34
3011.00,80.45
3010.00,80.58
3009.00,80.73
3008.00,80.86
3007.00,80.96
3006.00,81.02
3005.00,81.05
3004.00,81.10
3003.00,81.18
3002.00,81.29
3001.00,81.43
3000.00,81.57
2999.00,81.66
2998.00,81.70
2997.00,81.72
2996.00,81.75
2995.00,81.82
2994.00,81.90
2993.00,81.99
2992.00,82.04
2991.00,82.08
2990.00,82.12
2989.00,82.16
2988.00,82.20
2987.00,82.24
2986.00,82.26
2985.00,82.27
2984.00,82.27
2983.00,82.29
2982.00,82.33
2981.00,82.40
2980.00,82.49
2979.00,82.57
2978.00,82.61
2977.00,82.62
2976.00,82.61
2975.00,82.62
2974.00,82.64
2973.00,82.66
2972.00,82.66
2971.00,82.66
2970.00,82.70
2969.00,82.76
2968.00,82.82
2967.00,82.86
2966.00,82.90
2965.00,82.94
2964.00,82.99
2963.00,83.07
2962.00,83.17
2961.00,83.28
2960.00,83.38
2959.00,83.46
2958.00,83.52
2957.00,83.57
2956.00,83.62
2955.00,83.67
2954.00,83.73
2953.00,83.80
2952.00,83.86
2951.00,83.92
2950.00,83.98
2949.00,84.03
2948.00,84.07
2947.00,84.12
2946.00,84.16
2945.00,84.20
2944.00,84.23
2943.00,84.25
2942.00,84.26
2941.00,84.26
2940.00,84.28
2939.00,84.32
2938.00,84.41
2937.00,84.51
2936.00,84.60
2935.00,84.68
2934.00,84.73
2933.00,84.78
2932.00,84.83
2931.00,84.89
2930.00,84.94
2929.00,84.99
2928.00,85.04
2927.00,85.09
2926.00,85.15
2925.00,85.23
2924.00,85.31
2923.00,85.39
2922.00,85.45
2921.00,85.52
2920.00,85.60
2919.00,85.69
2918.00,85.78
2917.00,85.87
2916.00,85.97
2915.00,86.08
2914.00,86.18
2913.00,86.26
2912.00,86.34
2911.00,86.44
2910.00,86.54
2909.00,86.64
2908.00,86.72
2907.00,86.79
2906.00,86.86
2905.00,86.96
2904.00,87.09
2903.00,87.21
2902.00,87.29
2901.00,87.33
2900.00,87.38
2899.00,87.44
2898.00,87.52
2897.00,87.57
2896.00,87.60
2895.00,87.62
2894.00,87.64
2893.00,87.68
2892.00,87.73
2891.00,87.80
2890.00,87.87
2889.00,87.90
2888.00,87.90
2887.00,87.90
2886.00,87.93
2885.00,88.00
2884.00,88.09
2883.00,88.16
2882.00,88.20
2881.00,88.20
2880.00,88.20
2879.00,88.22
2878.00,88.27
2877.00,88.34
2876.00,88.41
2875.00,88.47
2874.00,88.53
2873.00,88.60
2872.00,88.68
2871.00,88.74
2870.00,88.80
2869.00,88.84
2868.00,88.87
2867.00,88.91
2866.00,88.96
2865.00,89.02
2864.00,89.08
2863.00,89.15
2862.00,89.23
2861.00,89.32
2860.00,89.40
2859.00,89.44
2858.00,89.44
2857.00,89.41
2856.00,89.39
2855.00,89.40
2854.00,89.45
2853.00,89.51
2852.00,89.59
2851.00,89.67
2850.00,89.75
2849.00,89.83
2848.00,89.89
2847.00,89.95
2846.00,90.01
2845.00,90.07
2844.00,90.13
2843.00,90.18
2842.00,90.22
2841.00,90.26
2840.00,90.30
2839.00,90.33
2838.00,90.35
2837.00,90.38
2836.00,90.42
2835.00,90.47
2834.00,90.53
2833.00,90.59
2832.00,90.63
2831.00,90.67
2830.00,90.70
2829.00,90.73
2828.00,90.74
2827.00,90.75
2826.00,90.77
2825.00,90.81
2824.00,90.87
2823.00,90.93
2822.00,90.96
2821.00,90.98
2820.00,91.00
2819.00,91.02
2818.00,91.07
2817.00,91.11
2816.00,91.17
2815.00,91.23
2814.00,91.27
2813.00,91.30
2812.00,91.32
2811.00,91.34
2810.00,91.36
2809.00,91.37
2808.00,91.38
2807.00,91.40
2806.00,91.43
2805.00,91.49
2804.00,91.55
2803.00,91.59
2802.00,91.60
2801.00,91.60
2800.00,91.59
2799.00,91.60
2798.00,91.63
2797.00,91.66
2796.00,91.69
2795.00,91.72
2794.00,91.73
2793.00,91.74
2792.00,91.77
2791.00,91.80
2790.00,91.83
2789.00,91.85
2788.00,91.86
2787.00,91.87
2786.00,91.90
2785.00,91.94
2784.00,91.98
2783.00,92.03
2782.00,92.07
2781.00,92.10
2780.00,92.12
2779.00,92.12
2778.00,92.11
2777.00,92.10
2776.00,92.11
2775.00,92.16
2774.00,92.21
2773.00,92.25
2772.00,92.26
2771.00,92.25
2770.00,92.24
2769.00,92.26
2768.00,92.30
2767.00,92.36
2766.00,92.41
2765.00,92.45
2764.00,92.47
2763.00,92.48
2762.00,92.48
2761.00,92.47
2760.00,92.47
2759.00,92.48
2758.00,92.51
2757.00,92.53
2756.00,92.56
2755.00,92.58
2754.00,92.61
2753.00,92.65
2752.00,92.69
2751.00,92.71
2750.00,92.72
2749.00,92.72
2748.00,92.72
2747.00,92.73
2746.00,92.75
2745.00,92.75
2744.00,92.74
2743.00,92.72
2742.00,92.72
2741.00,92.74
2740.00,92.79
2739.00,92.86
2738.00,92.93
2737.00,92.98
2736.00,92.98
2735.00,92.96
2734.00,92.93
2733.00,92.92
2732.00,92.93
2731.00,92.95
2730.00,92.99
2729.00,93.01
2728.00,93.02
2727.00,93.02
2726.00,93.02
2725.00,93.03
2724.00,93.04
2723.00,93.04
2722.00,93.04
2721.00,93.04
2720.00,93.06
2719.00,93.08
2718.00,93.12
2717.00,93.16
2716.00,93.20
2715.00,93.23
2714.00,93.25
2713.00,93.25
2712.00,93.24
2711.00,93.23
2710.00,93.23
2709.00,93.25
2708.00,93.27
2707.00,93.29
2706.00,93.30
2705.00,93.32
2704.00,93.34
2703.00,93.36
2702.00,93.38
2701.00,93.39
2700.00,93.39
2699.00,93.38
2698.00,93.37
2697.00,93.38
2696.00,93.39
2695.00,93.41
2694.00,93.42
2693.00,93.43
2692.00,93.42
2691.00,93.43
2690.00,93.44
2689.00,93.46
2688.00,93.45
2687.00,93.44
2686.00,93.44
2685.00,93.46
2684.00,93.49
2683.00,93.52
2682.00,93.53
2681.00,93.54
2680.00,93.54
2679.00,93.55
2678.00,93.56
2677.00,93.58
2676.00,93.59
2675.00,93.60
2674.00,93.60
2673.00,93.61
2672.00,93.62
2671.00,93.64
2670.00,93.65
2669.00,93.65
2668.00,93.64
2667.00,93.62
2666.00,93.61
2665.00,93.60
2664.00,93.61
2663.00,93.62
2662.00,93.62
2661.00,93.63
2660.00,93.64
2659.00,93.65
2658.00,93.65
2657.00,93.62
2656.00,93.57
2655.00,93.53
2654.00,93.51
2653.00,93.52
2652.00,93.55
2651.00,93.60
2650.00,93.65
2649.00,93.68
2648.00,93.67
2647.00,93.64
2646.00,93.61
2645.00,93.60
2644.00,93.60
2643.00,93.62
2642.00,93.64
2641.00,93.65
2640.00,93.66
2639.00,93.66
2638.00,93.67
2637.00,93.68
2636.00,93.68
2635.00,93.66
2634.00,93.64
2633.00,93.62
2632.00,93.62
2631.00,93.64
2630.00,93.67
2629.00,93.68
2628.00,93.68
2627.00,93.66
2626.00,93.65
2625.00,93.66
2624.00,93.66
2623.00,93.66
2622.00,93.67
2621.00,93.68
2620.00,93.67
2619.00,93.64
2618.00,93.60
2617.00,93.56
2616.00,93.57
2615.00,93.60
2614.00,93.64
2613.00,93.66
2612.00,93.68
2611.00,93.71
2610.00,93.74
2609.00,93.75
2608.00,93.75
2607.00,93.74
2606.00,93.73
2605.00,93.73
2604.00,93.75
2603.00,93.79
2602.00,93.82
2601.00,93.83
2600.00,93.82
2599.00,93.80
2598.00,93.78
2597.00,93.79
2596.00,93.80
2595.00,93.82
2594.00,93.84
2593.00,93.86
2592.00,93.89
2591.00,93.93
2590.00,93.97
2589.00,93.99
2588.00,93.98
2587.00,93.92
2586.00,93.82
2585.00,93.73
2584.00,93.69
2583.00,93.72
2582.00,93.79
2581.00,93.84
2580.00,93.87
2579.00,93.86
2578.00,93.84
2577.00,93.81
2576.00,93.79
2575.00,93.81
2574.00,93.83
2573.00,93.86
2572.00,93.87
2571.00,93.88
2570.00,93.90
2569.00,93.94
2568.00,93.97
2567.00,94.00
2566.00,94.02
2565.00,94.01
2564.00,93.98
2563.00,93.95
2562.00,93.91
2561.00,93.89
2560.00,93.88
2559.00,93.90
2558.00,93.92
2557.00,93.92
2556.00,93.92
2555.00,93.94
2554.00,93.95
2553.00,93.96
2552.00,93.94
2551.00,93.94
2550.00,93.95
2549.00,93.96
2548.00,93.96
2547.00,93.95
2546.00,93.95
2545.00,93.96
2544.00,93.97
2543.00,93.97
2542.00,93.95
2541.00,93.94
2540.00,93.94
2539.00,93.96
2538.00,93.96
2537.00,93.93
2536.00,93.90
2535.00,93.88
2534.00,93.89
2533.00,93.91
2532.00,93.92
2531.00,93.93
2530.00,93.95
2529.00,93.97
2528.00,94.00
2527.00,94.03
2526.00,94.03
2525.00,94.02
2524.00,93.98
2523.00,93.94
2522.00,93.92
2521.00,93.93
2520.00,93.97
2519.00,94.00
2518.00,94.01
2517.00,94.00
2516.00,93.99
2515.00,94.00
2514.00,94.03
2513.00,94.07
2512.00,94.10
2511.00,94.12
2510.00,94.14
2509.00,94.15
2508.00,94.15
2507.00,94.15
2506.00,94.13
2505.00,94.10
2504.00,94.07
2503.00,94.07
2502.00,94.07
2501.00,94.06
2500.00,94.05
2499.00,94.05
2498.00,94.05
2497.00,94.04
2496.00,94.01
2495.00,93.99
2494.00,93.98
2493.00,94.01
2492.00,94.06
2491.00,94.08
2490.00,94.07
2489.00,94.04
2488.00,94.03
2487.00,94.07
2486.00,94.14
2485.00,94.20
2484.00,94.22
2483.00,94.23
2482.00,94.23
2481.00,94.22
2480.00,94.21
2479.00,94.20
2478.00,94.20
2477.00,94.22
2476.00,94.22
2475.00,94.21
2474.00,94.17
2473.00,94.13
2472.00,94.09
2471.00,94.05
2470.00,94.02
2469.00,94.00
2468.00,94.00
2467.00,94.01
2466.00,94.02
2465.00,94.01
2464.00,93.98
2463.00,93.97
2462.00,94.00
2461.00,94.08
2460.00,94.16
2459.00,94.21
2458.00,94.22
2457.00,94.21
2456.00,94.18
2455.00,94.14
2454.00,94.10
2453.00,94.07
2452.00,94.05
2451.00,94.02
2450.00,93.99
2449.00,93.98
2448.00,93.98
2447.00,93.98
2446.00,93.97
2445.00,93.96
2444.00,93.96
2443.00,93.97
2442.00,93.99
2441.00,94.01
2440.00,94.05
2439.00,94.10
2438.00,94.18
2437.00,94.24
2436.00,94.28
2435.00,94.27
2434.00,94.22
2433.00,94.15
2432.00,94.09
2431.00,94.07
2430.00,94.08
2429.00,94.12
2428.00,94.14
2427.00,94.13
2426.00,94.08
2425.00,94.04
2424.00,94.03
2423.00,94.07
2422.00,94.12
2421.00,94.15
2420.00,94.15
2419.00,94.13
2418.00,94.11
2417.00,94.11
2416.00,94.12
2415.00,94.15
2414.00,94.18
2413.00,94.17
2412.00,94.15
2411.00,94.11
2410.00,94.10
2409.00,94.10
2408.00,94.12
2407.00,94.13
2406.00,94.14
2405.00,94.14
2404.00,94.14
2403.00,94.13
2402.00,94.11
2401.00,94.10
2400.00,94.10
2399.00,94.12
2398.00,94.15
2397.00,94.15
2396.00,94.12
2395.00,94.06
2394.00,94.02
2393.00,94.02
2392.00,94.05
2391.00,94.08
2390.00,94.11
2389.00,94.13
2388.00,94.16
2387.00,94.17
2386.00,94.17
2385.00,94.14
2384.00,94.12
2383.00,94.09
2382.00,94.06
2381.00,94.02
2380.00,93.96
2379.00,93.90
2378.00,93.86
2377.00,93.86
2376.00,93.90
2375.00,93.96
2374.00,94.00
2373.00,94.00
2372.00,93.96
2371.00,93.92
2370.00,93.88
2369.00,93.86
2368.00,93.88
2367.00,93.90
2366.00,93.87
2365.00,93.77
2364.00,93.65
2363.00,93.57
2362.00,93.55
2361.00,93.53
2360.00,93.51
2359.00,93.50
2358.00,93.53
2357.00,93.61
2356.00,93.68
2355.00,93.72
2354.00,93.73
2353.00,93.73
2352.00,93.73
2351.00,93.72
2350.00,93.70
2349.00,93.66
2348.00,93.63
2347.00,93.60
2346.00,93.57
2345.00,93.52
2344.00,93.45
2343.00,93.38
2342.00,93.33
2341.00,93.27
2340.00,93.23
2339.00,93.25
2338.00,93.34
2337.00,93.45
2336.00,93.55
2335.00,93.59
2334.00,93.58
2333.00,93.56
2332.00,93.55
2331.00,93.58
2330.00,93.61
2329.00,93.62
2328.00,93.59
2327.00,93.51
2326.00,93.40
2325.00,93.31
2324.00,93.29
2323.00,93.32
2322.00,93.34
2321.00,93.33
2320.00,93.31
2319.00,93.31
2318.00,93.33
2317.00,93.33
2316.00,93.32
2315.00,93.32
2314.00,93.34
2313.00,93.37
2312.00,93.41
2311.00,93.46
2310.00,93.51
2309.00,93.52
2308.00,93.49
2307.00,93.45
2306.00,93.44
2305.00,93.43
2304.00,93.42
2303.00,93.39
2302.00,93.35
2301.00,93.31
2300.00,93.30
2299.00,93.31
2298.00,93.33
2297.00,93.36
2296.00,93.40
2295.00,93.43
2294.00,93.44
2293.00,93.41
2292.00,93.34
2291.00,93.28
2290.00,93.25
2289.00,93.26
2288.00,93.27
2287.00,93.27
2286.00,93.28
2285.00,93.28
2284.00,93.30
2283.00,93.31
2282.00,93.28
2281.00,93.23
2280.00,93.18
2279.00,93.16
2278.00,93.16
2277.00,93.18
2276.00,93.20
2275.00,93.22
2274.00,93.21
2273.00,93.19
2272.00,93.18
2271.00,93.19
2270.00,93.18
2269.00,93.15
2268.00,93.10
2267.00,93.07
2266.00,93.08
2265.00,93.11
2264.00,93.14
2263.00,93.16
2262.00,93.15
2261.00,93.10
2260.00,93.06
2259.00,93.05
2258.00,93.05
2257.00,93.02
2256.00,92.94
2255.00,92.86
2254.00,92.81
2253.00,92.81
2252.00,92.86
2251.00,92.93
2250.00,92.99
2249.00,93.01
2248.00,93.00
2247.00,93.00
2246.00,93.00
2245.00,92.98
2244.00,92.96
2243.00,92.98
2242.00,93.04
2241.00,93.07
2240.00,93.04
2239.00,92.95
2238.00,92.88
2237.00,92.84
2236.00,92.84
2235.00,92.83
2234.00,92.78
2233.00,92.71
2232.00,92.65
2231.00,92.64
2230.00,92.69
2229.00,92.74
2228.00,92.77
2227.00,92.76
2226.00,92.74
2225.00,92.74
2224.00,92.77
2223.00,92.81
2222.00,92.81
2221.00,92.78
2220.00,92.73
2219.00,92.70
2218.00,92.71
2217.00,92.72
2216.00,92.74
2215.00,92.78
2214.00,92.80
2213.00,92.78
2212.00,92.73
2211.00,92.69
2210.00,92.66
2209.00,92.64
2208.00,92.63
2207.00,92.61
2206.00,92.57
2205.00,92.49
2204.00,92.40
2203.00,92.34
2202.00,92.34
2201.00,92.34
2200.00,92.33
2199.00,92.31
2198.00,92.28
2197.00,92.26
2196.00,92.27
2195.00,92.31
2194.00,92.31
2193.00,92.25
2192.00,92.15
2191.00,92.06
2190.00,92.02
2189.00,92.02
2188.00,92.03
2187.00,92.07
2186.00,92.13
2185.00,92.20
2184.00,92.27
2183.00,92.33
2182.00,92.31
2181.00,92.20
2180.00,92.08
2179.00,92.06
2178.00,92.16
2177.00,92.31
2176.00,92.42
2175.00,92.47
2174.00,92.47
2173.00,92.42
2172.00,92.33
2171.00,92.25
2170.00,92.21
2169.00,92.19
2168.00,92.16
2167.00,92.07
2166.00,91.93
2165.00,91.77
2164.00,91.64
2163.00,91.58
2162.00,91.58
2161.00,91.62
2160.00,91.72
2159.00,91.87
2158.00,92.01
2157.00,92.07
2156.00,92.09
2155.00,92.12
2154.00,92.15
2153.00,92.14
2152.00,92.06
2151.00,91.98
2150.00,91.92
2149.00,91.92
2148.00,91.96
2147.00,92.01
2146.00,92.04
2145.00,92.01
2144.00,91.91
2143.00,91.81
2142.00,91.76
2141.00,91.77
2140.00,91.80
2139.00,91.78
2138.00,91.71
2137.00,91.64
2136.00,91.65
2135.00,91.75
2134.00,91.87
2133.00,91.96
2132.00,92.00
2131.00,92.01
2130.00,92.02
2129.00,92.00
2128.00,91.99
2127.00,91.99
2126.00,92.00
2125.00,91.99
2124.00,91.97
2123.00,91.96
2122.00,91.95
2121.00,91.93
2120.00,91.91
2119.00,91.92
2118.00,91.95
2117.00,91.96
2116.00,91.94
2115.00,91.90
2114.00,91.88
2113.00,91.89
2112.00,91.91
2111.00,91.93
2110.00,91.94
2109.00,91.91
2108.00,91.86
2107.00,91.83
2106.00,91.84
2105.00,91.87
2104.00,91.89
2103.00,91.88
2102.00,91.84
2101.00,91.79
2100.00,91.75
2099.00,91.76
2098.00,91.81
2097.00,91.85
2096.00,91.88
2095.00,91.89
2094.00,91.88
2093.00,91.85
2092.00,91.82
2091.00,91.82
2090.00,91.81
2089.00,91.77
2088.00,91.71
2087.00,91.65
2086.00,91.61
2085.00,91.60
2084.00,91.61
2083.00,91.61
2082.00,91.59
2081.00,91.51
2080.00,91.40
2079.00,91.31
2078.00,91.25
2077.00,91.22
2076.00,91.23
2075.00,91.26
2074.00,91.28
2073.00,91.26
2072.00,91.19
2071.00,91.11
2070.00,91.01
2069.00,90.91
2068.00,90.80
2067.00,90.70
2066.00,90.63
2065.00,90.55
2064.00,90.45
2063.00,90.32
2062.00,90.18
2061.00,90.02
2060.00,89.88
2059.00,89.76
2058.00,89.65
2057.00,89.53
2056.00,89.42
2055.00,89.32
2054.00,89.21
2053.00,89.09
2052.00,88.98
2051.00,88.90
2050.00,88.83
2049.00,88.71
2048.00,88.54
2047.00,88.40
2046.00,88.34
2045.00,88.34
2044.00,88.32
2043.00,88.26
2042.00,88.14
2041.00,88.02
2040.00,87.97
2039.00,88.00
2038.00,88.07
2037.00,88.13
2036.00,88.18
2035.00,88.26
2034.00,88.36
2033.00,88.46
2032.00,88.58
2031.00,88.73
2030.00,88.86
2029.00,88.92
2028.00,88.92
2027.00,88.98
2026.00,89.13
2025.00,89.32
2024.00,89.51
2023.00,89.67
2022.00,89.81
2021.00,89.93
2020.00,90.05
2019.00,90.21
2018.00,90.44
2017.00,90.67
2016.00,90.83
2015.00,90.94
2014.00,91.03
2013.00,91.11
2012.00,91.21
2011.00,91.29
2010.00,91.33
2009.00,91.35
2008.00,91.42
2007.00,91.57
2006.00,91.76
2005.00,91.88
2004.00,91.88
2003.00,91.86
2002.00,91.90
2001.00,92.01
2000.00,92.14
1999.00,92.23
1998.00,92.27
1997.00,92.28
1996.00,92.28
1995.00,92.30
1994.00,92.31
1993.00,92.32
1992.00,92.35
1991.00,92.42
1990.00,92.47
1989.00,92.45
1988.00,92.36
1987.00,92.27
1986.00,92.24
1985.00,92.26
1984.00,92.32
1983.00,92.42
1982.00,92.50
1981.00,92.53
1980.00,92.51
1979.00,92.49
1978.00,92.52
1977.00,92.56
1976.00,92.60
1975.00,92.62
1974.00,92.63
1973.00,92.63
1972.00,92.66
1971.00,92.73
1970.00,92.77
1969.00,92.75
1968.00,92.69
1967.00,92.70
1966.00,92.77
1965.00,92.83
1964.00,92.86
1963.00,92.90
1962.00,92.97
1961.00,93.05
1960.00,93.13
1959.00,93.20
1958.00,93.27
1957.00,93.29
1956.00,93.26
1955.00,93.21
1954.00,93.16
1953.00,93.10
1952.00,93.04
1951.00,93.02
1950.00,93.04
1949.00,93.07
1948.00,93.08
1947.00,93.09
1946.00,93.11
1945.00,93.13
1944.00,93.15
1943.00,93.20
1942.00,93.27
1941.00,93.31
1940.00,93.32
1939.00,93.32
1938.00,93.33
1937.00,93.34
1936.00,93.36
1935.00,93.37
1934.00,93.37
1933.00,93.35
1932.00,93.32
1931.00,93.31
1930.00,93.31
1929.00,93.30
1928.00,93.29
1927.00,93.32
1926.00,93.36
1925.00,93.39
1924.00,93.39
1923.00,93.37
1922.00,93.33
1921.00,93.28
1920.00,93.24
1919.00,93.24
1918.00,93.27
1917.00,93.30
1916.00,93.36
1915.00,93.44
1914.00,93.53
1913.00,93.57
1912.00,93.56
1911.00,93.53
1910.00,93.49
1909.00,93.47
1908.00,93.46
1907.00,93.48
1906.00,93.52
1905.00,93.55
1904.00,93.55
1903.00,93.55
1902.00,93.55
1901.00,93.55
1900.00,93.54
1899.00,93.53
1898.00,93.53
1897.00,93.54
1896.00,93.55
1895.00,93.57
1894.00,93.60
1893.00,93.63
1892.00,93.64
1891.00,93.65
1890.00,93.63
1889.00,93.61
1888.00,93.60
1887.00,93.62
1886.00,93.64
1885.00,93.64
1884.00,93.62
1883.00,93.62
1882.00,93.64
1881.00,93.64
1880.00,93.61
1879.00,93.58
1878.00,93.56
1877.00,93.55
1876.00,93.57
1875.00,93.61
1874.00,93.65
1873.00,93.66
1872.00,93.62
1871.00,93.58
1870.00,93.55
1869.00,93.56
1868.00,93.60
1867.00,93.66
1866.00,93.70
1865.00,93.72
1864.00,93.72
1863.00,93.73
1862.00,93.75
1861.00,93.74
1860.00,93.71
1859.00,93.69
1858.00,93.69
1857.00,93.70
1856.00,93.73
1855.00,93.76
1854.00,93.78
1853.00,93.77
1852.00,93.73
1851.00,93.70
1850.00,93.69
1849.00,93.66
1848.00,93.63
1847.00,93.63
1846.00,93.66
1845.00,93.67
1844.00,93.64
1843.00,93.62
1842.00,93.63
1841.00,93.64
1840.00,93.65
1839.00,93.66
1838.00,93.69
1837.00,93.71
1836.00,93.72
1835.00,93.73
1834.00,93.74
1833.00,93.72
1832.00,93.68
1831.00,93.64
1830.00,93.64
1829.00,93.65
1828.00,93.67
1827.00,93.70
1826.00,93.73
1825.00,93.72
1824.00,93.69
1823.00,93.66
1822.00,93.65
1821.00,93.65
1820.00,93.65
1819.00,93.66
1818.00,93.66
1817.00,93.65
1816.00,93.63
1815.00,93.64
1814.00,93.66
1813.00,93.68
1812.00,93.67
1811.00,93.65
1810.00,93.64
1809.00,93.62
1808.00,93.59
1807.00,93.58
1806.00,93.58
1805.00,93.56
1804.00,93.52
1803.00,93.49
1802.00,93.49
1801.00,93.48
1800.00,93.46
1799.00,93.43
1798.00,93.42
1797.00,93.41
1796.00,93.38
1795.00,93.38
1794.00,93.39
1793.00,93.41
1792.00,93.40
1791.00,93.40
1790.00,93.40
1789.00,93.39
1788.00,93.37
1787.00,93.34
1786.00,93.32
1785.00,93.29
1784.00,93.26
1783.00,93.23
1782.00,93.21
1781.00,93.17
1780.00,93.11
1779.00,93.08
1778.00,93.08
1777.00,93.07
1776.00,93.03
1775.00,92.98
1774.00,92.93
1773.00,92.87
1772.00,92.80
1771.00,92.76
1770.00,92.77
1769.00,92.77
1768.00,92.76
1767.00,92.75
1766.00,92.73
1765.00,92.71
1764.00,92.66
1763.00,92.61
1762.00,92.56
1761.00,92.50
1760.00,92.43
1759.00,92.36
1758.00,92.29
1757.00,92.19
1756.00,92.07
1755.00,91.97
1754.00,91.90
1753.00,91.84
1752.00,91.74
1751.00,91.61
1750.00,91.49
1749.00,91.35
1748.00,91.21
1747.00,91.11
1746.00,91.04
1745.00,90.95
1744.00,90.82
1743.00,90.69
1742.00,90.57
1741.00,90.43
1740.00,90.23
1739.00,90.03
1738.00,89.90
1737.00,89.81
1736.00,89.69
1735.00,89.47
1734.00,89.17
1733.00,88.91
1732.00,88.73
1731.00,88.61
1730.00,88.49
1729.00,88.35
1728.00,88.19
1727.00,88.05
1726.00,87.93
1725.00,87.78
1724.00,87.57
1723.00,87.36
1722.00,87.20
1721.00,87.07
1720.00,86.91
1719.00,86.70
1718.00,86.40
1717.00,86.03
1716.00,85.68
1715.00,85.44
1714.00,85.29
1713.00,85.15
1712.00,84.98
1711.00,84.79
1710.00,84.60
1709.00,84.41
1708.00,84.19
1707.00,83.93
1706.00,83.62
1705.00,83.26
1704.00,82.96
1703.00,82.78
1702.00,82.63
1701.00,82.29
1700.00,81.67
1699.00,81.15
1698.00,80.84
1697.00,80.48
1696.00,79.91
1695.00,79.36
1694.00,79.01
1693.00,78.73
1692.00,78.40
1691.00,77.99
1690.00,77.50
1689.00,76.98
1688.00,76.52
1687.00,76.16
1686.00,75.82
1685.00,75.19
1684.00,74.14
1683.00,73.36
1682.00,72.99
1681.00,72.66
1680.00,72.24
1679.00,71.80
1678.00,71.43
1677.00,71.04
1676.00,70.49
1675.00,69.82
1674.00,69.27
1673.00,68.91
1672.00,68.58
1671.00,68.14
1670.00,67.51
1669.00,66.79
1668.00,66.19
1667.00,65.77
1666.00,65.47
1665.00,65.16
1664.00,64.70
1663.00,64.07
1662.00,63.43
1661.00,62.93
1660.00,62.54
1659.00,62.18
1658.00,61.87
1657.00,61.60
1656.00,61.37
1655.00,61.12
1654.00,60.61
1653.00,59.65
1652.00,58.97
1651.00,58.75
1650.00,58.71
1649.00,58.66
1648.00,58.43
1647.00,57.98
1646.00,57.61
1645.00,57.45
1644.00,57.35
1643.00,57.26
1642.00,57.19
1641.00,57.13
1640.00,57.08
1639.00,57.03
1638.00,57.02
1637.00,57.01
1636.00,56.95
1635.00,56.92
1634.00,57.01
1633.00,57.15
1632.00,57.31
1631.00,57.46
1630.00,57.64
1629.00,57.86
1628.00,58.09
1627.00,58.33
1626.00,58.58
1625.00,58.89
1624.00,59.27
1623.00,59.69
1622.00,60.08
1621.00,60.42
1620.00,60.71
1619.00,61.01
1618.00,61.38
1617.00,61.88
1616.00,62.44
1615.00,62.91
1614.00,63.31
1613.00,63.70
1612.00,64.10
1611.00,64.52
1610.00,64.94
1609.00,65.37
1608.00,65.82
1607.00,66.25
1606.00,66.66
1605.00,67.05
1604.00,67.43
1603.00,67.81
1602.00,68.16
1601.00,68.49
1600.00,68.83
1599.00,69.15
1598.00,69.45
1597.00,69.73
1596.00,70.00
1595.00,70.26
1594.00,70.48
1593.00,70.68
1592.00,70.88
1591.00,71.07
1590.00,71.25
1589.00,71.40
1588.00,71.53
1587.00,71.63
1586.00,71.70
1585.00,71.75
1584.00,71.79
1583.00,71.81
1582.00,71.81
1581.00,71.78
1580.00,71.76
1579.00,71.72
1578.00,71.62
1577.00,71.44
1576.00,71.21
1575.00,71.04
1574.00,70.96
1573.00,70.92
1572.00,70.90
1571.00,70.82
1570.00,70.62
1569.00,70.36
1568.00,70.19
1567.00,70.09
1566.00,69.97
1565.00,69.82
1564.00,69.67
1563.00,69.59
1562.00,69.57
1561.00,69.61
1560.00,69.54
1559.00,68.93
1558.00,68.19
1557.00,67.98
1556.00,67.94
1555.00,67.85
1554.00,67.68
1553.00,67.52
1552.00,67.41
1551.00,67.29
1550.00,67.11
1549.00,66.94
1548.00,66.85
1547.00,66.82
1546.00,66.79
1545.00,66.72
1544.00,66.63
1543.00,66.55
1542.00,66.49
1541.00,66.42
1540.00,66.32
1539.00,66.29
1538.00,66.36
1537.00,66.47
1536.00,66.60
1535.00,66.71
1534.00,66.75
1533.00,66.78
1532.00,66.86
1531.00,66.99
1530.00,67.14
1529.00,67.32
1528.00,67.52
1527.00,67.71
1526.00,67.87
1525.00,68.03
1524.00,68.22
1523.00,68.42
1522.00,68.66
1521.00,68.91
1520.00,69.15
1519.00,69.38
1518.00,69.66
1517.00,70.02
1516.00,70.42
1515.00,70.78
1514.00,71.12
1513.00,71.47
1512.00,71.81
1511.00,72.13
1510.00,72.42
1509.00,72.70
1508.00,73.06
1507.00,73.60
1506.00,74.15
1505.00,74.53
1504.00,74.82
1503.00,75.09
1502.00,75.37
1501.00,75.67
1500.00,75.96
1499.00,76.21
1498.00,76.47
1497.00,76.80
1496.00,77.15
1495.00,77.45
1494.00,77.70
1493.00,77.90
1492.00,78.08
1491.00,78.23
1490.00,78.39
1489.00,78.56
1488.00,78.72
1487.00,78.89
1486.00,79.07
1485.00,79.22
1484.00,79.34
1483.00,79.42
1482.00,79.50
1481.00,79.57
1480.00,79.62
1479.00,79.66
1478.00,79.70
1477.00,79.72
1476.00,79.69
1475.00,79.63
1474.00,79.54
1473.00,79.38
1472.00,79.19
1471.00,79.10
1470.00,79.08
1469.00,79.10
1468.00,79.09
1467.00,79.05
1466.00,78.98
1465.00,78.88
1464.00,78.77
1463.00,78.71
1462.00,78.70
1461.00,78.70
1460.00,78.68
1459.00,78.62
1458.00,78.48
1457.00,78.25
1456.00,78.08
1455.00,78.04
1454.00,78.08
1453.00,78.12
1452.00,78.14
1451.00,78.16
1450.00,78.18
1449.00,78.20
1448.00,78.19
1447.00,78.18
1446.00,78.20
1445.00,78.23
1444.00,78.26
1443.00,78.28
1442.00,78.30
1441.00,78.33
1440.00,78.37
1439.00,78.41
1438.00,78.44
1437.00,78.42
1436.00,78.35
1435.00,78.30
1434.00,78.31
1433.00,78.34
1432.00,78.34
1431.00,78.28
1430.00,78.16
1429.00,78.00
1428.00,77.86
1427.00,77.74
1426.00,77.64
1425.00,77.50
1424.00,77.31
1423.00,77.13
1422.00,77.02
1421.00,76.94
1420.00,76.79
1419.00,76.51
1418.00,76.23
1417.00,76.05
1416.00,75.93
1415.00,75.85
1414.00,75.77
1413.00,75.68
1412.00,75.57
1411.00,75.46
1410.00,75.37
1409.00,75.30
1408.00,75.24
1407.00,75.18
1406.00,75.13
1405.00,75.05
1404.00,74.97
1403.00,74.94
1402.00,74.95
1401.00,74.96
1400.00,74.95
1399.00,74.92
1398.00,74.93
1397.00,74.97
1396.00,75.03
1395.00,75.09
1394.00,75.17
1393.00,75.24
1392.00,75.32
1391.00,75.42
1390.00,75.53
1389.00,75.64
1388.00,75.74
1387.00,75.85
1386.00,75.97
1385.00,76.10
1384.00,76.22
1383.00,76.34
1382.00,76.44
1381.00,76.55
1380.00,76.67
1379.00,76.80
1378.00,76.94
1377.00,77.05
1376.00,77.15
1375.00,77.25
1374.00,77.35
1373.00,77.44
1372.00,77.54
1371.00,77.64
1370.00,77.75
1369.00,77.84
1368.00,77.92
1367.00,77.99
1366.00,78.06
1365.00,78.12
1364.00,78.15
1363.00,78.15
1362.00,78.15
1361.00,78.17
1360.00,78.21
1359.00,78.24
1358.00,78.27
1357.00,78.27
1356.00,78.25
1355.00,78.23
1354.00,78.22
1353.00,78.21
1352.00,78.21
1351.00,78.22
1350.00,78.21
1349.00,78.21
1348.00,78.20
1347.00,78.21
1346.00,78.22
1345.00,78.23
1344.00,78.23
1343.00,78.24
1342.00,78.24
1341.00,78.23
1340.00,78.20
1339.00,78.17
1338.00,78.16
1337.00,78.15
1336.00,78.16
1335.00,78.18
1334.00,78.20
1333.00,78.21
1332.00,78.21
1331.00,78.19
1330.00,78.17
1329.00,78.15
1328.00,78.13
1327.00,78.10
1326.00,78.08
1325.00,78.04
1324.00,78.02
1323.00,78.00
1322.00,77.98
1321.00,77.97
1320.00,77.94
1319.00,77.90
1318.00,77.87
1317.00,77.86
1316.00,77.86
1315.00,77.88
1314.00,77.91
1313.00,77.93
1312.00,77.95
1311.00,77.97
1310.00,77.99
1309.00,78.02
1308.00,78.05
1307.00,78.10
1306.00,78.16
1305.00,78.22
1304.00,78.27
1303.00,78.33
1302.00,78.38
1301.00,78.42
1300.00,78.46
1299.00,78.50
1298.00,78.54
1297.00,78.58
1296.00,78.61
1295.00,78.65
1294.00,78.67
1293.00,78.70
1292.00,78.72
1291.00,78.75
1290.00,78.78
1289.00,78.80
1288.00,78.82
1287.00,78.85
1286.00,78.87
1285.00,78.90
1284.00,78.92
1283.00,78.92
1282.00,78.92
1281.00,78.92
1280.00,78.94
1279.00,78.97
1278.00,79.01
1277.00,79.05
1276.00,79.07
1275.00,79.08
1274.00,79.09
1273.00,79.11
1272.00,79.13
1271.00,79.14
1270.00,79.14
1269.00,79.15
1268.00,79.16
1267.00,79.16
1266.00,79.14
1265.00,79.09
1264.00,79.03
1263.00,78.97
1262.00,78.92
1261.00,78.88
1260.00,78.85
1259.00,78.83
1258.00,78.81
1257.00,78.78
1256.00,78.74
1255.00,78.68
1254.00,78.61
1253.00,78.54
1252.00,78.46
1251.00,78.37
1250.00,78.28
1249.00,78.20
1248.00,78.11
1247.00,78.02
1246.00,77.93
1245.00,77.85
1244.00,77.77
1243.00,77.71
1242.00,77.67
1241.00,77.64
1240.00,77.62
1239.00,77.59
1238.00,77.57
1237.00,77.56
1236.00,77.56
1235.00,77.57
1234.00,77.59
1233.00,77.61
1232.00,77.63
1231.00,77.66
1230.00,77.70
1229.00,77.76
1228.00,77.80
1227.00,77.84
1226.00,77.89
1225.00,77.95
1224.00,78.01
1223.00,78.06
1222.00,78.10
1221.00,78.15
1220.00,78.20
1219.00,78.27
1218.00,78.35
1217.00,78.43
1216.00,78.51
1215.00,78.59
1214.00,78.69
1213.00,78.78
1212.00,78.87
1211.00,78.95
1210.00,79.03
1209.00,79.12
1208.00,79.21
1207.00,79.32
1206.00,79.43
1205.00,79.54
1204.00,79.66
1203.00,79.77
1202.00,79.88
1201.00,79.98
1200.00,80.09
1199.00,80.21
1198.00,80.32
1197.00,80.42
1196.00,80.49
1195.00,80.55
1194.00,80.61
1193.00,80.67
1192.00,80.72
1191.00,80.76
1190.00,80.79
1189.00,80.82
1188.00,80.86
1187.00,80.89
1186.00,80.92
1185.00,80.94
1184.00,80.95
1183.00,80.94
1182.00,80.93
1181.00,80.92
1180.00,80.94
1179.00,80.96
1178.00,80.97
1177.00,80.96
1176.00,80.94
1175.00,80.91
1174.00,80.88
1173.00,80.84
1172.00,80.80
1171.00,80.77
1170.00,80.75
1169.00,80.75
1168.00,80.74
1167.00,80.72
1166.00,80.71
1165.00,80.68
1164.00,80.66
1163.00,80.63
1162.00,80.59
1161.00,80.54
1160.00,80.47
1159.00,80.40
1158.00,80.31
1157.00,80.21
1156.00,80.10
1155.00,80.01
1154.00,79.94
1153.00,79.89
1152.00,79.84
1151.00,79.76
1150.00,79.66
1149.00,79.55
1148.00,79.43
1147.00,79.31
1146.00,79.17
1145.00,79.05
1144.00,78.94
1143.00,78.84
1142.00,78.73
1141.00,78.60
1140.00,78.47
1139.00,78.34
1138.00,78.19
1137.00,78.02
1136.00,77.84
1135.00,77.67
1134.00,77.51
1133.00,77.34
1132.00,77.17
1131.00,76.98
1130.00,76.81
1129.00,76.64
1128.00,76.48
1127.00,76.30
1126.00,76.11
1125.00,75.91
1124.00,75.70
1123.00,75.49
1122.00,75.29
1121.00,75.11
1120.00,74.94
1119.00,74.80
1118.00,74.66
1117.00,74.51
1116.00,74.35
1115.00,74.20
1114.00,74.04
1113.00,73.89
1112.00,73.73
1111.00,73.58
1110.00,73.42
1109.00,73.25
1108.00,73.08
1107.00,72.92
1106.00,72.77
1105.00,72.61
1104.00,72.43
1103.00,72.25
1102.00,72.06
1101.00,71.87
1100.00,71.67
1099.00,71.47
1098.00,71.27
1097.00,71.07
1096.00,70.87
1095.00,70.67
1094.00,70.46
1093.00,70.22
1092.00,69.96
1091.00,69.69
1090.00,69.44
1089.00,69.19
1088.00,68.94
1087.00,68.69
1086.00,68.44
1085.00,68.18
1084.00,67.92
1083.00,67.67
1082.00,67.44
1081.00,67.22
1080.00,66.99
1079.00,66.78
1078.00,66.59
1077.00,66.38
1076.00,66.15
1075.00,65.90
1074.00,65.68
1073.00,65.46
1072.00,65.25
1071.00,65.03
1070.00,64.83
1069.00,64.63
1068.00,64.42
1067.00,64.20
1066.00,63.97
1065.00,63.73
1064.00,63.48
1063.00,63.25
1062.00,63.05
1061.00,62.85
1060.00,62.61
1059.00,62.37
1058.00,62.15
1057.00,61.95
1056.00,61.75
1055.00,61.54
1054.00,61.32
1053.00,61.12
1052.00,60.92
1051.00,60.77
1050.00,60.65
1049.00,60.53
1048.00,60.40
1047.00,60.26
1046.00,60.14
1045.00,60.02
1044.00,59.89
1043.00,59.78
1042.00,59.67
1041.00,59.55
1040.00,59.44
1039.00,59.37
1038.00,59.36
1037.00,59.36
1036.00,59.32
1035.00,59.23
1034.00,59.12
1033.00,59.01
1032.00,58.92
1031.00,58.86
1030.00,58.84
1029.00,58.83
1028.00,58.83
1027.00,58.86
1026.00,58.90
1025.00,58.95
1024.00,58.97
1023.00,58.96
1022.00,58.95
1021.00,58.94
1020.00,58.94
1019.00,58.98
1018.00,59.04
1017.00,59.08
1016.00,59.10
1015.00,59.13
1014.00,59.18
1013.00,59.25
1012.00,59.30
1011.00,59.34
1010.00,59.37
1009.00,59.38
1008.00,59.36
1007.00,59.33
1006.00,59.29
1005.00,59.26
1004.00,59.22
1003.00,59.20
1002.00,59.18
1001.00,59.13
1000.00,59.05
999.00,58.96
998.00,58.85
997.00,58.71
996.00,58.55
995.00,58.39
994.00,58.23
993.00,58.05
992.00,57.84
991.00,57.62
990.00,57.43
989.00,57.24
988.00,57.05
987.00,56.84
986.00,56.61
985.00,56.33
984.00,56.01
983.00,55.69
982.00,55.40
981.00,55.14
980.00,54.89
979.00,54.66
978.00,54.45
977.00,54.22
976.00,53.98
975.00,53.74
974.00,53.56
973.00,53.41
972.00,53.31
971.00,53.26
970.00,53.29
969.00,53.38
968.00,53.50
967.00,53.63
966.00,53.79
965.00,53.99
964.00,54.25
963.00,54.55
962.00,54.88
961.00,55.22
960.00,55.56
959.00,55.93
958.00,56.35
957.00,56.78
956.00,57.20
955.00,57.62
954.00,58.06
953.00,58.51
952.00,58.95
951.00,59.38
950.00,59.81
949.00,60.25
948.00,60.68
947.00,61.11
946.00,61.54
945.00,61.94
944.00,62.31
943.00,62.67
942.00,63.04
941.00,63.40
940.00,63.76
939.00,64.08
938.00,64.39
937.00,64.67
936.00,64.93
935.00,65.17
934.00,65.40
933.00,65.58
932.00,65.71
931.00,65.81
930.00,65.92
929.00,66.03
928.00,66.13
927.00,66.21
926.00,66.29
925.00,66.38
924.00,66.46
923.00,66.52
922.00,66.56
921.00,66.58
920.00,66.60
919.00,66.65
918.00,66.71
917.00,66.77
916.00,66.82
915.00,66.86
914.00,66.91
913.00,66.97
912.00,67.04
911.00,67.12
910.00,67.23
909.00,67.34
908.00,67.45
907.00,67.54
906.00,67.62
905.00,67.67
904.00,67.69
903.00,67.68
902.00,67.65
901.00,67.62
900.00,67.59
899.00,67.59
898.00,67.62
897.00,67.64
896.00,67.65
895.00,67.65
894.00,67.64
893.00,67.61
892.00,67.57
891.00,67.51
890.00,67.45
889.00,67.39
888.00,67.32
887.00,67.24
886.00,67.16
885.00,67.08
884.00,67.02
883.00,66.99
882.00,66.96
881.00,66.89
880.00,66.78
879.00,66.66
878.00,66.56
877.00,66.48
876.00,66.41
875.00,66.36
874.00,66.33
873.00,66.30
872.00,66.23
871.00,66.15
870.00,66.06
869.00,65.96
868.00,65.86
867.00,65.74
866.00,65.62
865.00,65.50
864.00,65.37
863.00,65.24
862.00,65.13
861.00,65.02
860.00,64.93
859.00,64.83
858.00,64.74
857.00,64.63
856.00,64.52
855.00,64.43
854.00,64.38
853.00,64.33
852.00,64.26
851.00,64.15
850.00,64.01
849.00,63.83
848.00,63.64
847.00,63.47
846.00,63.31
845.00,63.15
844.00,62.97
843.00,62.80
842.00,62.67
841.00,62.56
840.00,62.44
839.00,62.34
838.00,62.24
837.00,62.11
836.00,61.94
835.00,61.76
834.00,61.59
833.00,61.42
832.00,61.25
831.00,61.08
830.00,60.93
829.00,60.78
828.00,60.61
827.00,60.45
826.00,60.32
825.00,60.19
824.00,60.08
823.00,60.00
822.00,59.92
821.00,59.79
820.00,59.61
819.00,59.45
818.00,59.34
817.00,59.26
816.00,59.15
815.00,59.03
814.00,58.89
813.00,58.76
812.00,58.62
811.00,58.48
810.00,58.33
809.00,58.19
808.00,58.05
807.00,57.94
806.00,57.84
805.00,57.71
804.00,57.53
803.00,57.37
802.00,57.27
801.00,57.18
800.00,57.07
799.00,56.95
798.00,56.84
797.00,56.70
796.00,56.54
795.00,56.38
794.00,56.27
793.00,56.17
792.00,56.06
791.00,55.93
790.00,55.81
789.00,55.68
788.00,55.56
787.00,55.43
786.00,55.31
785.00,55.16
784.00,54.98
783.00,54.81
782.00,54.66
781.00,54.53
780.00,54.41
779.00,54.30
778.00,54.21
777.00,54.12
776.00,54.05
775.00,53.99
774.00,53.94
773.00,53.86
772.00,53.73
771.00,53.58
770.00,53.45
769.00,53.32
768.00,53.17
767.00,53.05
766.00,52.96
765.00,52.89
764.00,52.77
763.00,52.62
762.00,52.47
761.00,52.33
760.00,52.20
759.00,52.08
758.00,51.99
757.00,51.91
756.00,51.83
755.00,51.73
754.00,51.63
753.00,51.49
752.00,51.32
751.00,51.14
750.00,50.99
749.00,50.87
748.00,50.77
747.00,50.71
746.00,50.64
745.00,50.54
744.00,50.41
743.00,50.28
742.00,50.18
741.00,50.06
740.00,49.92
739.00,49.79
738.00,49.70
737.00,49.64
736.00,49.59
735.00,49.54
734.00,49.46
733.00,49.32
732.00,49.14
731.00,49.02
730.00,48.96
729.00,48.91
728.00,48.80
727.00,48.68
726.00,48.61
725.00,48.54
724.00,48.44
723.00,48.31
722.00,48.20
721.00,48.11
720.00,48.03
719.00,47.99
718.00,47.97
717.00,47.93
716.00,47.81
715.00,47.62
714.00,47.42
713.00,47.25
712.00,47.11
711.00,47.05
710.00,47.04
709.00,47.03
708.00,46.96
707.00,46.85
706.00,46.74
705.00,46.62
704.00,46.49
703.00,46.39
702.00,46.35
701.00,46.34
700.00,46.29
699.00,46.18
698.00,46.04
697.00,45.86
696.00,45.69
695.00,45.58
694.00,45.55
693.00,45.55
692.00,45.55
691.00,45.56
690.00,45.56
689.00,45.51
688.00,45.40
687.00,45.26
686.00,45.14
685.00,45.02
684.00,44.88
683.00,44.75
682.00,44.68
681.00,44.65
680.00,44.62
679.00,44.58
678.00,44.50
677.00,44.38
676.00,44.25
675.00,44.14
674.00,44.08
673.00,44.00
672.00,43.89
671.00,43.80
670.00,43.74
669.00,43.63
668.00,43.48
667.00,43.44
666.00,43.52
665.00,43.55
664.00,43.48
663.00,43.37
662.00,43.30
661.00,43.23
660.00,43.11
659.00,43.02
658.00,43.01
657.00,43.08
656.00,43.12
655.00,43.09
654.00,43.02
653.00,42.93
652.00,42.85
651.00,42.82
650.00,42.76
649.00,42.58
648.00,42.32
647.00,42.15
646.00,42.17
645.00,42.25
644.00,42.27
643.00,42.25
642.00,42.29
641.00,42.35
640.00,42.36
639.00,42.29
638.00,42.16
637.00,41.93
636.00,41.69
635.00,41.60
634.00,41.70
633.00,41.85
632.00,41.89
631.00,41.91
630.00,41.95
629.00,41.92
628.00,41.73
627.00,41.52
626.00,41.42
625.00,41.42
624.00,41.44
623.00,41.59
622.00,41.88
621.00,42.04
620.00,41.90
619.00,41.68
618.00,41.70
617.00,41.85
616.00,41.83
615.00,41.60
614.00,41.30
613.00,40.95
612.00,40.57
611.00,40.35
610.00,40.39
609.00,40.50
608.00,40.57
607.00,40.75
606.00,41.08
605.00,41.33
604.00,41.31
603.00,41.17
602.00,41.09
601.00,41.05
600.00,41.06
599.00,41.26
598.00,41.62
597.00,41.82
596.00,41.62
595.00,41.21
594.00,40.93
593.00,40.76
592.00,40.47
591.00,40.13
590.00,39.91
589.00,39.73
588.00,39.46
587.00,39.22
586.00,39.19
585.00,39.28
584.00,39.35
583.00,39.51
582.00,39.79
581.00,39.80
580.00,39.22
579.00,38.48
578.00,38.29
577.00,38.75
576.00,39.36
575.00,39.59
574.00,39.26
573.00,38.60
572.00,38.03
571.00,37.95
570.00,38.14
569.00,38.01
568.00,37.60
567.00,37.44
566.00,37.42
565.00,36.90
564.00,36.05
563.00,35.96
562.00,36.96
561.00,38.07
560.00,38.54
559.00,38.79
558.00,39.42
557.00,40.05
556.00,40.03
555.00,39.37
554.00,38.57
553.00,37.79
552.00,36.96
551.00,36.42
550.00,36.34
