Created as New Dataset,Sample 004 By Administrator Date Thursday, December 10 2020
cm-1,%T
4000.00,94.75
3999.00,94.75
3998.00,94.75
3997.00,94.74
3996.00,94.73
3995.00,94.69
3994.00,94.63
3993.00,94.56
3992.00,94.51
3991.00,94.48
3990.00,94.49
3989.00,94.51
3988.00,94.53
3987.00,94.56
3986.00,94.61
3985.00,94.65
3984.00,94.69
3983.00,94.69
3982.00,94.69
3981.00,94.69
3980.00,94.71
3979.00,94.73
3978.00,94.74
3977.00,94.75
3976.00,94.74
3975.00,94.74
3974.00,94.74
3973.00,94.73
3972.00,94.73
3971.00,94.72
3970.00,94.71
3969.00,94.71
3968.00,94.69
3967.00,94.67
3966.00,94.65
3965.00,94.65
3964.00,94.67
3963.00,94.70
3962.00,94.73
3961.00,94.76
3960.00,94.79
3959.00,94.82
3958.00,94.84
3957.00,94.84
3956.00,94.81
3955.00,94.76
3954.00,94.72
3953.00,94.69
3952.00,94.66
3951.00,94.64
3950.00,94.62
3949.00,94.61
3948.00,94.58
3947.00,94.56
3946.00,94.55
3945.00,94.56
3944.00,94.59
3943.00,94.62
3942.00,94.65
3941.00,94.67
3940.00,94.67
3939.00,94.68
3938.00,94.69
3937.00,94.72
3936.00,94.75
3935.00,94.77
3934.00,94.78
3933.00,94.75
3932.00,94.71
3931.00,94.68
3930.00,94.68
3929.00,94.71
3928.00,94.75
3927.00,94.78
3926.00,94.80
3925.00,94.80
3924.00,94.79
3923.00,94.76
3922.00,94.70
3921.00,94.66
3920.00,94.63
3919.00,94.63
3918.00,94.66
3917.00,94.68
3916.00,94.70
3915.00,94.70
3914.00,94.70
3913.00,94.69
3912.00,94.69
3911.00,94.68
3910.00,94.67
3909.00,94.67
3908.00,94.68
3907.00,94.70
3906.00,94.72
3905.00,94.74
3904.00,94.76
3903.00,94.78
3902.00,94.77
3901.00,94.74
3900.00,94.72
3899.00,94.73
3898.00,94.77
3897.00,94.83
3896.00,94.87
3895.00,94.88
3894.00,94.87
3893.00,94.83
3892.00,94.81
3891.00,94.81
3890.00,94.82
3889.00,94.82
3888.00,94.82
3887.00,94.81
3886.00,94.80
3885.00,94.77
3884.00,94.72
3883.00,94.65
3882.00,94.60
3881.00,94.59
3880.00,94.63
3879.00,94.68
3878.00,94.71
3877.00,94.72
3876.00,94.74
3875.00,94.78
3874.00,94.85
3873.00,94.92
3872.00,94.94
3871.00,94.91
3870.00,94.82
3869.00,94.74
3868.00,94.70
3867.00,94.70
3866.00,94.72
3865.00,94.75
3864.00,94.79
3863.00,94.81
3862.00,94.81
3861.00,94.78
3860.00,94.73
3859.00,94.67
3858.00,94.60
3857.00,94.54
3856.00,94.50
3855.00,94.49
3854.00,94.54
3853.00,94.65
3852.00,94.75
3851.00,94.81
3850.00,94.85
3849.00,94.86
3848.00,94.86
3847.00,94.83
3846.00,94.79
3845.00,94.74
3844.00,94.68
3843.00,94.60
3842.00,94.52
3841.00,94.45
3840.00,94.43
3839.00,94.51
3838.00,94.63
3837.00,94.71
3836.00,94.70
3835.00,94.65
3834.00,94.62
3833.00,94.64
3832.00,94.69
3831.00,94.73
3830.00,94.73
3829.00,94.69
3828.00,94.64
3827.00,94.62
3826.00,94.62
3825.00,94.65
3824.00,94.66
3823.00,94.65
3822.00,94.60
3821.00,94.57
3820.00,94.60
3819.00,94.67
3818.00,94.74
3817.00,94.78
3816.00,94.77
3815.00,94.73
3814.00,94.71
3813.00,94.72
3812.00,94.73
3811.00,94.73
3810.00,94.72
3809.00,94.70
3808.00,94.69
3807.00,94.70
3806.00,94.72
3805.00,94.72
3804.00,94.69
3803.00,94.66
3802.00,94.64
3801.00,94.65
3800.00,94.65
3799.00,94.64
3798.00,94.62
3797.00,94.62
3796.00,94.64
3795.00,94.68
3794.00,94.72
3793.00,94.74
3792.00,94.74
3791.00,94.70
3790.00,94.66
3789.00,94.61
3788.00,94.58
3787.00,94.56
3786.00,94.56
3785.00,94.57
3784.00,94.58
3783.00,94.59
3782.00,94.60
3781.00,94.63
3780.00,94.66
3779.00,94.67
3778.00,94.64
3777.00,94.59
3776.00,94.55
3775.00,94.52
3774.00,94.51
3773.00,94.51
3772.00,94.53
3771.00,94.55
3770.00,94.56
3769.00,94.54
3768.00,94.51
3767.00,94.50
3766.00,94.55
3765.00,94.63
3764.00,94.69
3763.00,94.68
3762.00,94.62
3761.00,94.53
3760.00,94.44
3759.00,94.39
3758.00,94.37
3757.00,94.37
3756.00,94.36
3755.00,94.33
3754.00,94.29
3753.00,94.26
3752.00,94.26
3751.00,94.28
3750.00,94.31
3749.00,94.33
3748.00,94.33
3747.00,94.31
3746.00,94.26
3745.00,94.19
3744.00,94.15
3743.00,94.14
3742.00,94.14
3741.00,94.14
3740.00,94.12
3739.00,94.08
3738.00,94.01
3737.00,93.94
3736.00,93.87
3735.00,93.85
3734.00,93.88
3733.00,93.93
3732.00,93.97
3731.00,93.99
3730.00,93.98
3729.00,93.97
3728.00,93.95
3727.00,93.92
3726.00,93.88
3725.00,93.84
3724.00,93.81
3723.00,93.82
3722.00,93.85
3721.00,93.86
3720.00,93.86
3719.00,93.86
3718.00,93.88
3717.00,93.92
3716.00,93.95
3715.00,93.95
3714.00,93.90
3713.00,93.83
3712.00,93.78
3711.00,93.80
3710.00,93.84
3709.00,93.85
3708.00,93.80
3707.00,93.74
3706.00,93.66
3705.00,93.59
3704.00,93.54
3703.00,93.48
3702.00,93.41
3701.00,93.33
3700.00,93.24
3699.00,93.15
3698.00,93.07
3697.00,92.99
3696.00,92.93
3695.00,92.87
3694.00,92.81
3693.00,92.73
3692.00,92.63
3691.00,92.50
3690.00,92.36
3689.00,92.22
3688.00,92.12
3687.00,92.06
3686.00,92.02
3685.00,91.99
3684.00,91.93
3683.00,91.85
3682.00,91.74
3681.00,91.62
3680.00,91.50
3679.00,91.38
3678.00,91.23
3677.00,91.03
3676.00,90.81
3675.00,90.68
3674.00,90.65
3673.00,90.69
3672.00,90.69
3671.00,90.58
3670.00,90.33
3669.00,90.03
3668.00,89.78
3667.00,89.59
3666.00,89.44
3665.00,89.33
3664.00,89.23
3663.00,89.14
3662.00,89.03
3661.00,88.88
3660.00,88.71
3659.00,88.51
3658.00,88.30
3657.00,88.06
3656.00,87.85
3655.00,87.69
3654.00,87.61
3653.00,87.55
3652.00,87.47
3651.00,87.27
3650.00,86.90
3649.00,86.47
3648.00,86.16
3647.00,86.02
3646.00,85.95
3645.00,85.87
3644.00,85.77
3643.00,85.64
3642.00,85.48
3641.00,85.32
3640.00,85.15
3639.00,84.99
3638.00,84.85
3637.00,84.74
3636.00,84.65
3635.00,84.56
3634.00,84.48
3633.00,84.39
3632.00,84.30
3631.00,84.18
3630.00,83.94
3629.00,83.62
3628.00,83.35
3627.00,83.20
3626.00,83.13
3625.00,83.07
3624.00,83.00
3623.00,82.92
3622.00,82.80
3621.00,82.65
3620.00,82.45
3619.00,82.25
3618.00,82.10
3617.00,82.00
3616.00,81.90
3615.00,81.78
3614.00,81.64
3613.00,81.49
3612.00,81.35
3611.00,81.20
3610.00,81.03
3609.00,80.84
3608.00,80.68
3607.00,80.59
3606.00,80.53
3605.00,80.47
3604.00,80.36
3603.00,80.19
3602.00,79.98
3601.00,79.77
3600.00,79.60
3599.00,79.51
3598.00,79.45
3597.00,79.39
3596.00,79.29
3595.00,79.14
3594.00,78.96
3593.00,78.80
3592.00,78.68
3591.00,78.59
3590.00,78.50
3589.00,78.35
3588.00,78.15
3587.00,77.94
3586.00,77.78
3585.00,77.68
3584.00,77.59
3583.00,77.52
3582.00,77.44
3581.00,77.34
3580.00,77.21
3579.00,77.05
3578.00,76.87
3577.00,76.70
3576.00,76.56
3575.00,76.41
3574.00,76.25
3573.00,76.09
3572.00,75.96
3571.00,75.86
3570.00,75.77
3569.00,75.66
3568.00,75.50
3567.00,75.30
3566.00,75.11
3565.00,74.96
3564.00,74.84
3563.00,74.73
3562.00,74.63
3561.00,74.51
3560.00,74.37
3559.00,74.22
3558.00,74.05
3557.00,73.88
3556.00,73.73
3555.00,73.59
3554.00,73.46
3553.00,73.30
3552.00,73.14
3551.00,72.99
3550.00,72.85
3549.00,72.70
3548.00,72.53
3547.00,72.36
3546.00,72.21
3545.00,72.09
3544.00,71.96
3543.00,71.80
3542.00,71.63
3541.00,71.46
3540.00,71.32
3539.00,71.20
3538.00,71.07
3537.00,70.93
3536.00,70.76
3535.00,70.58
3534.00,70.43
3533.00,70.32
3532.00,70.23
3531.00,70.13
3530.00,69.99
3529.00,69.79
3528.00,69.58
3527.00,69.40
3526.00,69.26
3525.00,69.12
3524.00,68.93
3523.00,68.72
3522.00,68.53
3521.00,68.39
3520.00,68.29
3519.00,68.20
3518.00,68.08
3517.00,67.94
3516.00,67.79
3515.00,67.64
3514.00,67.50
3513.00,67.35
3512.00,67.19
3511.00,67.04
3510.00,66.92
3509.00,66.81
3508.00,66.70
3507.00,66.57
3506.00,66.41
3505.00,66.24
3504.00,66.07
3503.00,65.91
3502.00,65.78
3501.00,65.66
3500.00,65.53
3499.00,65.40
3498.00,65.26
3497.00,65.13
3496.00,65.01
3495.00,64.88
3494.00,64.73
3493.00,64.57
3492.00,64.39
3491.00,64.23
3490.00,64.08
3489.00,63.96
3488.00,63.85
3487.00,63.73
3486.00,63.59
3485.00,63.44
3484.00,63.27
3483.00,63.07
3482.00,62.86
3481.00,62.67
3480.00,62.53
3479.00,62.41
3478.00,62.28
3477.00,62.15
3476.00,62.01
3475.00,61.88
3474.00,61.76
3473.00,61.64
3472.00,61.48
3471.00,61.30
3470.00,61.12
3469.00,60.96
3468.00,60.83
3467.00,60.71
3466.00,60.58
3465.00,60.46
3464.00,60.34
3463.00,60.22
3462.00,60.11
3461.00,60.00
3460.00,59.90
3459.00,59.79
3458.00,59.68
3457.00,59.57
3456.00,59.46
3455.00,59.35
3454.00,59.21
3453.00,59.04
3452.00,58.85
3451.00,58.67
3450.00,58.49
3449.00,58.32
3448.00,58.15
3447.00,57.98
3446.00,57.82
3445.00,57.70
3444.00,57.60
3443.00,57.51
3442.00,57.40
3441.00,57.28
3440.00,57.14
3439.00,56.98
3438.00,56.82
3437.00,56.68
3436.00,56.56
3435.00,56.46
3434.00,56.34
3433.00,56.20
3432.00,56.05
3431.00,55.91
3430.00,55.79
3429.00,55.67
3428.00,55.58
3427.00,55.50
3426.00,55.40
3425.00,55.28
3424.00,55.15
3423.00,55.01
3422.00,54.87
3421.00,54.75
3420.00,54.64
3419.00,54.55
3418.00,54.46
3417.00,54.37
3416.00,54.26
3415.00,54.13
3414.00,53.98
3413.00,53.82
3412.00,53.68
3411.00,53.56
3410.00,53.47
3409.00,53.38
3408.00,53.30
3407.00,53.23
3406.00,53.15
3405.00,53.05
3404.00,52.94
3403.00,52.81
3402.00,52.68
3401.00,52.57
3400.00,52.47
3399.00,52.38
3398.00,52.31
3397.00,52.24
3396.00,52.17
3395.00,52.07
3394.00,51.96
3393.00,51.85
3392.00,51.75
3391.00,51.69
3390.00,51.63
3389.00,51.58
3388.00,51.53
3387.00,51.47
3386.00,51.41
3385.00,51.35
3384.00,51.28
3383.00,51.21
3382.00,51.15
3381.00,51.09
3380.00,51.04
3379.00,50.99
3378.00,50.95
3377.00,50.91
3376.00,50.88
3375.00,50.87
3374.00,50.84
3373.00,50.78
3372.00,50.71
3371.00,50.64
3370.00,50.58
3369.00,50.51
3368.00,50.45
3367.00,50.41
3366.00,50.38
3365.00,50.34
3364.00,50.29
3363.00,50.22
3362.00,50.17
3361.00,50.15
3360.00,50.17
3359.00,50.19
3358.00,50.18
3357.00,50.15
3356.00,50.09
3355.00,50.04
3354.00,50.01
3353.00,50.00
3352.00,49.99
3351.00,49.97
3350.00,49.94
3349.00,49.92
3348.00,49.92
3347.00,49.94
3346.00,49.98
3345.00,50.00
3344.00,50.00
3343.00,49.96
3342.00,49.91
3341.00,49.85
3340.00,49.80
3339.00,49.77
3338.00,49.75
3337.00,49.76
3336.00,49.77
3335.00,49.75
3334.00,49.72
3333.00,49.70
3332.00,49.69
3331.00,49.69
3330.00,49.70
3329.00,49.69
3328.00,49.67
3327.00,49.67
3326.00,49.68
3325.00,49.71
3324.00,49.75
3323.00,49.76
3322.00,49.75
3321.00,49.74
3320.00,49.73
3319.00,49.74
3318.00,49.76
3317.00,49.79
3316.00,49.80
3315.00,49.78
3314.00,49.73
3313.00,49.67
3312.00,49.62
3311.00,49.60
3310.00,49.59
3309.00,49.59
3308.00,49.62
3307.00,49.68
3306.00,49.75
3305.00,49.81
3304.00,49.82
3303.00,49.78
3302.00,49.74
3301.00,49.70
3300.00,49.67
3299.00,49.65
3298.00,49.64
3297.00,49.68
3296.00,49.75
3295.00,49.82
3294.00,49.87
3293.00,49.89
3292.00,49.90
3291.00,49.89
3290.00,49.88
3289.00,49.86
3288.00,49.84
3287.00,49.82
3286.00,49.80
3285.00,49.80
3284.00,49.81
3283.00,49.84
3282.00,49.88
3281.00,49.91
3280.00,49.93
3279.00,49.95
3278.00,49.98
3277.00,50.01
3276.00,50.03
3275.00,50.02
3274.00,49.99
3273.00,49.96
3272.00,49.94
3271.00,49.94
3270.00,49.94
3269.00,49.93
3268.00,49.91
3267.00,49.91
3266.00,49.92
3265.00,49.95
3264.00,49.95
3263.00,49.94
3262.00,49.93
3261.00,49.92
3260.00,49.95
3259.00,49.99
3258.00,50.02
3257.00,50.02
3256.00,50.01
3255.00,49.99
3254.00,50.00
3253.00,50.01
3252.00,50.04
3251.00,50.06
3250.00,50.07
3249.00,50.10
3248.00,50.14
3247.00,50.18
3246.00,50.21
3245.00,50.26
3244.00,50.30
3243.00,50.34
3242.00,50.35
3241.00,50.36
3240.00,50.37
3239.00,50.41
3238.00,50.46
3237.00,50.50
3236.00,50.55
3235.00,50.59
3234.00,50.64
3233.00,50.71
3232.00,50.77
3231.00,50.83
3230.00,50.87
3229.00,50.92
3228.00,50.97
3227.00,51.02
3226.00,51.06
3225.00,51.10
3224.00,51.15
3223.00,51.22
3222.00,51.32
3221.00,51.40
3220.00,51.46
3219.00,51.51
3218.00,51.57
3217.00,51.64
3216.00,51.72
3215.00,51.81
3214.00,51.91
3213.00,52.01
3212.00,52.09
3211.00,52.16
3210.00,52.21
3209.00,52.27
3208.00,52.35
3207.00,52.44
3206.00,52.55
3205.00,52.67
3204.00,52.80
3203.00,52.91
3202.00,53.02
3201.00,53.12
3200.00,53.21
3199.00,53.29
3198.00,53.37
3197.00,53.46
3196.00,53.57
3195.00,53.67
3194.00,53.77
3193.00,53.88
3192.00,54.01
3191.00,54.14
3190.00,54.28
3189.00,54.42
3188.00,54.57
3187.00,54.73
3186.00,54.88
3185.00,55.03
3184.00,55.17
3183.00,55.32
3182.00,55.46
3181.00,55.59
3180.00,55.69
3179.00,55.78
3178.00,55.87
3177.00,55.98
3176.00,56.10
3175.00,56.24
3174.00,56.39
3173.00,56.55
3172.00,56.70
3171.00,56.84
3170.00,56.98
3169.00,57.14
3168.00,57.30
3167.00,57.46
3166.00,57.59
3165.00,57.72
3164.00,57.86
3163.00,57.99
3162.00,58.13
3161.00,58.28
3160.00,58.43
3159.00,58.60
3158.00,58.78
3157.00,58.97
3156.00,59.15
3155.00,59.30
3154.00,59.43
3153.00,59.56
3152.00,59.72
3151.00,59.91
3150.00,60.10
3149.00,60.27
3148.00,60.43
3147.00,60.60
3146.00,60.77
3145.00,60.92
3144.00,61.06
3143.00,61.20
3142.00,61.36
3141.00,61.56
3140.00,61.76
3139.00,61.93
3138.00,62.06
3137.00,62.17
3136.00,62.30
3135.00,62.46
3134.00,62.64
3133.00,62.83
3132.00,63.01
3131.00,63.20
3130.00,63.39
3129.00,63.60
3128.00,63.79
3127.00,63.97
3126.00,64.13
3125.00,64.29
3124.00,64.47
3123.00,64.64
3122.00,64.80
3121.00,64.95
3120.00,65.09
3119.00,65.23
3118.00,65.38
3117.00,65.52
3116.00,65.66
3115.00,65.80
3114.00,65.95
3113.00,66.11
3112.00,66.27
3111.00,66.43
3110.00,66.60
3109.00,66.79
3108.00,67.00
3107.00,67.20
3106.00,67.39
3105.00,67.55
3104.00,67.70
3103.00,67.85
3102.00,67.99
3101.00,68.12
3100.00,68.24
3099.00,68.38
3098.00,68.55
3097.00,68.75
3096.00,68.96
3095.00,69.14
3094.00,69.31
3093.00,69.47
3092.00,69.63
3091.00,69.80
3090.00,69.96
3089.00,70.12
3088.00,70.28
3087.00,70.44
3086.00,70.59
3085.00,70.72
3084.00,70.85
3083.00,70.96
3082.00,71.07
3081.00,71.17
3080.00,71.29
3079.00,71.46
3078.00,71.66
3077.00,71.86
3076.00,72.03
3075.00,72.16
3074.00,72.27
3073.00,72.40
3072.00,72.55
3071.00,72.71
3070.00,72.87
3069.00,73.01
3068.00,73.13
3067.00,73.26
3066.00,73.38
3065.00,73.52
3064.00,73.65
3063.00,73.78
3062.00,73.93
3061.00,74.09
3060.00,74.25
3059.00,74.39
3058.00,74.52
3057.00,74.65
3056.00,74.79
3055.00,74.94
3054.00,75.09
3053.00,75.24
3052.00,75.37
3051.00,75.49
3050.00,75.61
3049.00,75.73
3048.00,75.84
3047.00,75.95
3046.00,76.06
3045.00,76.19
3044.00,76.34
3043.00,76.50
3042.00,76.65
3041.00,76.78
3040.00,76.88
3039.00,76.96
3038.00,77.05
3037.00,77.17
3036.00,77.30
3035.00,77.43
3034.00,77.57
3033.00,77.70
3032.00,77.82
3031.00,77.93
3030.00,78.02
3029.00,78.11
3028.00,78.23
3027.00,78.36
3026.00,78.51
3025.00,78.64
3024.00,78.76
3023.00,78.86
3022.00,78.97
3021.00,79.07
3020.00,79.16
3019.00,79.26
3018.00,79.38
3017.00,79.50
3016.00,79.63
3015.00,79.75
3014.00,79.86
3013.00,79.96
3012.00,80.05
3011.00,80.14
3010.00,80.24
3009.00,80.36
3008.00,80.48
3007.00,80.59
3006.00,80.67
3005.00,80.72
3004.00,80.77
3003.00,80.84
3002.00,80.95
3001.00,81.08
3000.00,81.21
2999.00,81.32
2998.00,81.41
2997.00,81.49
2996.00,81.57
2995.00,81.66
2994.00,81.76
2993.00,81.84
2992.00,81.90
2991.00,81.95
2990.00,82.02
2989.00,82.12
2988.00,82.24
2987.00,82.36
2986.00,82.46
2985.00,82.54
2984.00,82.61
2983.00,82.68
2982.00,82.76
2981.00,82.86
2980.00,82.95
2979.00,83.02
2978.00,83.07
2977.00,83.11
2976.00,83.17
2975.00,83.25
2974.00,83.33
2973.00,83.39
2972.00,83.44
2971.00,83.49
2970.00,83.56
2969.00,83.65
2968.00,83.73
2967.00,83.80
2966.00,83.86
2965.00,83.93
2964.00,84.02
2963.00,84.12
2962.00,84.21
2961.00,84.29
2960.00,84.37
2959.00,84.45
2958.00,84.52
2957.00,84.59
2956.00,84.64
2955.00,84.70
2954.00,84.76
2953.00,84.83
2952.00,84.89
2951.00,84.94
2950.00,84.97
2949.00,85.01
2948.00,85.05
2947.00,85.11
2946.00,85.17
2945.00,85.25
2944.00,85.33
2943.00,85.41
2942.00,85.50
2941.00,85.59
2940.00,85.67
2939.00,85.74
2938.00,85.79
2937.00,85.82
2936.00,85.84
2935.00,85.88
2934.00,85.92
2933.00,85.95
2932.00,85.98
2931.00,86.00
2930.00,86.04
2929.00,86.09
2928.00,86.14
2927.00,86.17
2926.00,86.20
2925.00,86.25
2924.00,86.31
2923.00,86.39
2922.00,86.46
2921.00,86.54
2920.00,86.61
2919.00,86.68
2918.00,86.73
2917.00,86.78
2916.00,86.84
2915.00,86.90
2914.00,86.94
2913.00,86.97
2912.00,86.98
2911.00,87.00
2910.00,87.05
2909.00,87.13
2908.00,87.22
2907.00,87.29
2906.00,87.35
2905.00,87.40
2904.00,87.47
2903.00,87.55
2902.00,87.62
2901.00,87.68
2900.00,87.73
2899.00,87.77
2898.00,87.82
2897.00,87.86
2896.00,87.88
2895.00,87.90
2894.00,87.92
2893.00,87.95
2892.00,87.98
2891.00,88.03
2890.00,88.06
2889.00,88.09
2888.00,88.10
2887.00,88.11
2886.00,88.14
2885.00,88.18
2884.00,88.24
2883.00,88.29
2882.00,88.35
2881.00,88.40
2880.00,88.44
2879.00,88.49
2878.00,88.54
2877.00,88.59
2876.00,88.64
2875.00,88.68
2874.00,88.69
2873.00,88.68
2872.00,88.67
2871.00,88.66
2870.00,88.66
2869.00,88.68
2868.00,88.70
2867.00,88.75
2866.00,88.83
2865.00,88.90
2864.00,88.96
2863.00,88.97
2862.00,88.96
2861.00,88.98
2860.00,89.03
2859.00,89.11
2858.00,89.18
2857.00,89.21
2856.00,89.22
2855.00,89.21
2854.00,89.22
2853.00,89.24
2852.00,89.28
2851.00,89.35
2850.00,89.41
2849.00,89.47
2848.00,89.50
2847.00,89.52
2846.00,89.53
2845.00,89.53
2844.00,89.53
2843.00,89.55
2842.00,89.60
2841.00,89.66
2840.00,89.73
2839.00,89.77
2838.00,89.79
2837.00,89.80
2836.00,89.80
2835.00,89.81
2834.00,89.82
2833.00,89.85
2832.00,89.86
2831.00,89.87
2830.00,89.89
2829.00,89.92
2828.00,89.95
2827.00,89.98
2826.00,90.01
2825.00,90.05
2824.00,90.09
2823.00,90.12
2822.00,90.13
2821.00,90.13
2820.00,90.13
2819.00,90.15
2818.00,90.18
2817.00,90.21
2816.00,90.24
2815.00,90.26
2814.00,90.29
2813.00,90.32
2812.00,90.36
2811.00,90.40
2810.00,90.42
2809.00,90.43
2808.00,90.44
2807.00,90.46
2806.00,90.48
2805.00,90.51
2804.00,90.53
2803.00,90.54
2802.00,90.53
2801.00,90.52
2800.00,90.53
2799.00,90.55
2798.00,90.57
2797.00,90.59
2796.00,90.61
2795.00,90.65
2794.00,90.68
2793.00,90.69
2792.00,90.70
2791.00,90.70
2790.00,90.73
2789.00,90.76
2788.00,90.78
2787.00,90.80
2786.00,90.81
2785.00,90.82
2784.00,90.82
2783.00,90.83
2782.00,90.81
2781.00,90.79
2780.00,90.78
2779.00,90.79
2778.00,90.82
2777.00,90.87
2776.00,90.91
2775.00,90.96
2774.00,90.99
2773.00,91.00
2772.00,90.99
2771.00,90.99
2770.00,91.01
2769.00,91.02
2768.00,91.02
2767.00,91.03
2766.00,91.04
2765.00,91.07
2764.00,91.11
2763.00,91.16
2762.00,91.19
2761.00,91.19
2760.00,91.18
2759.00,91.17
2758.00,91.16
2757.00,91.16
2756.00,91.16
2755.00,91.15
2754.00,91.15
2753.00,91.14
2752.00,91.15
2751.00,91.17
2750.00,91.18
2749.00,91.19
2748.00,91.21
2747.00,91.22
2746.00,91.24
2745.00,91.24
2744.00,91.22
2743.00,91.21
2742.00,91.21
2741.00,91.24
2740.00,91.28
2739.00,91.34
2738.00,91.39
2737.00,91.42
2736.00,91.42
2735.00,91.41
2734.00,91.39
2733.00,91.38
2732.00,91.37
2731.00,91.36
2730.00,91.36
2729.00,91.36
2728.00,91.38
2727.00,91.40
2726.00,91.42
2725.00,91.42
2724.00,91.42
2723.00,91.41
2722.00,91.39
2721.00,91.36
2720.00,91.35
2719.00,91.36
2718.00,91.40
2717.00,91.46
2716.00,91.50
2715.00,91.53
2714.00,91.54
2713.00,91.54
2712.00,91.54
2711.00,91.53
2710.00,91.53
2709.00,91.54
2708.00,91.55
2707.00,91.57
2706.00,91.59
2705.00,91.60
2704.00,91.60
2703.00,91.60
2702.00,91.59
2701.00,91.58
2700.00,91.58
2699.00,91.56
2698.00,91.55
2697.00,91.55
2696.00,91.57
2695.00,91.59
2694.00,91.60
2693.00,91.61
2692.00,91.63
2691.00,91.67
2690.00,91.71
2689.00,91.72
2688.00,91.70
2687.00,91.68
2686.00,91.67
2685.00,91.68
2684.00,91.69
2683.00,91.68
2682.00,91.67
2681.00,91.65
2680.00,91.65
2679.00,91.66
2678.00,91.67
2677.00,91.68
2676.00,91.69
2675.00,91.69
2674.00,91.71
2673.00,91.72
2672.00,91.73
2671.00,91.74
2670.00,91.74
2669.00,91.74
2668.00,91.73
2667.00,91.72
2666.00,91.72
2665.00,91.73
2664.00,91.73
2663.00,91.73
2662.00,91.71
2661.00,91.68
2660.00,91.67
2659.00,91.68
2658.00,91.69
2657.00,91.68
2656.00,91.65
2655.00,91.62
2654.00,91.60
2653.00,91.60
2652.00,91.62
2651.00,91.66
2650.00,91.69
2649.00,91.70
2648.00,91.67
2647.00,91.64
2646.00,91.63
2645.00,91.65
2644.00,91.67
2643.00,91.69
2642.00,91.69
2641.00,91.67
2640.00,91.66
2639.00,91.66
2638.00,91.66
2637.00,91.67
2636.00,91.66
2635.00,91.66
2634.00,91.64
2633.00,91.62
2632.00,91.60
2631.00,91.61
2630.00,91.63
2629.00,91.64
2628.00,91.63
2627.00,91.61
2626.00,91.60
2625.00,91.60
2624.00,91.61
2623.00,91.61
2622.00,91.62
2621.00,91.63
2620.00,91.62
2619.00,91.59
2618.00,91.56
2617.00,91.55
2616.00,91.56
2615.00,91.58
2614.00,91.58
2613.00,91.58
2612.00,91.57
2611.00,91.58
2610.00,91.60
2609.00,91.59
2608.00,91.56
2607.00,91.54
2606.00,91.55
2605.00,91.59
2604.00,91.63
2603.00,91.64
2602.00,91.63
2601.00,91.61
2600.00,91.59
2599.00,91.57
2598.00,91.55
2597.00,91.54
2596.00,91.56
2595.00,91.60
2594.00,91.63
2593.00,91.63
2592.00,91.60
2591.00,91.60
2590.00,91.63
2589.00,91.68
2588.00,91.68
2587.00,91.63
2586.00,91.56
2585.00,91.49
2584.00,91.48
2583.00,91.50
2582.00,91.55
2581.00,91.59
2580.00,91.59
2579.00,91.56
2578.00,91.51
2577.00,91.49
2576.00,91.49
2575.00,91.52
2574.00,91.56
2573.00,91.61
2572.00,91.64
2571.00,91.65
2570.00,91.64
2569.00,91.61
2568.00,91.58
2567.00,91.55
2566.00,91.54
2565.00,91.54
2564.00,91.54
2563.00,91.55
2562.00,91.55
2561.00,91.56
2560.00,91.57
2559.00,91.58
2558.00,91.59
2557.00,91.59
2556.00,91.58
2555.00,91.58
2554.00,91.58
2553.00,91.58
2552.00,91.58
2551.00,91.57
2550.00,91.54
2549.00,91.50
2548.00,91.47
2547.00,91.46
2546.00,91.47
2545.00,91.49
2544.00,91.49
2543.00,91.48
2542.00,91.45
2541.00,91.44
2540.00,91.45
2539.00,91.46
2538.00,91.44
2537.00,91.41
2536.00,91.37
2535.00,91.37
2534.00,91.41
2533.00,91.46
2532.00,91.50
2531.00,91.53
2530.00,91.54
2529.00,91.54
2528.00,91.53
2527.00,91.52
2526.00,91.51
2525.00,91.50
2524.00,91.47
2523.00,91.45
2522.00,91.44
2521.00,91.44
2520.00,91.45
2519.00,91.46
2518.00,91.48
2517.00,91.50
2516.00,91.50
2515.00,91.49
2514.00,91.45
2513.00,91.41
2512.00,91.41
2511.00,91.44
2510.00,91.49
2509.00,91.52
2508.00,91.51
2507.00,91.49
2506.00,91.47
2505.00,91.47
2504.00,91.48
2503.00,91.49
2502.00,91.48
2501.00,91.43
2500.00,91.38
2499.00,91.35
2498.00,91.34
2497.00,91.33
2496.00,91.30
2495.00,91.26
2494.00,91.24
2493.00,91.27
2492.00,91.33
2491.00,91.38
2490.00,91.40
2489.00,91.39
2488.00,91.39
2487.00,91.39
2486.00,91.41
2485.00,91.43
2484.00,91.45
2483.00,91.45
2482.00,91.44
2481.00,91.42
2480.00,91.40
2479.00,91.41
2478.00,91.43
2477.00,91.43
2476.00,91.42
2475.00,91.39
2474.00,91.37
2473.00,91.36
2472.00,91.36
2471.00,91.34
2470.00,91.31
2469.00,91.28
2468.00,91.25
2467.00,91.23
2466.00,91.23
2465.00,91.23
2464.00,91.23
2463.00,91.25
2462.00,91.31
2461.00,91.38
2460.00,91.43
2459.00,91.42
2458.00,91.37
2457.00,91.32
2456.00,91.29
2455.00,91.27
2454.00,91.25
2453.00,91.25
2452.00,91.24
2451.00,91.23
2450.00,91.21
2449.00,91.18
2448.00,91.17
2447.00,91.17
2446.00,91.18
2445.00,91.17
2444.00,91.13
2443.00,91.08
2442.00,91.03
2441.00,90.99
2440.00,90.99
2439.00,91.04
2438.00,91.12
2437.00,91.20
2436.00,91.27
2435.00,91.29
2434.00,91.25
2433.00,91.17
2432.00,91.09
2431.00,91.06
2430.00,91.08
2429.00,91.12
2428.00,91.15
2427.00,91.15
2426.00,91.12
2425.00,91.10
2424.00,91.11
2423.00,91.14
2422.00,91.15
2421.00,91.12
2420.00,91.06
2419.00,91.03
2418.00,91.04
2417.00,91.08
2416.00,91.12
2415.00,91.14
2414.00,91.14
2413.00,91.14
2412.00,91.13
2411.00,91.13
2410.00,91.13
2409.00,91.12
2408.00,91.10
2407.00,91.09
2406.00,91.08
2405.00,91.08
2404.00,91.09
2403.00,91.10
2402.00,91.10
2401.00,91.10
2400.00,91.10
2399.00,91.11
2398.00,91.12
2397.00,91.10
2396.00,91.04
2395.00,90.99
2394.00,90.96
2393.00,90.98
2392.00,91.02
2391.00,91.06
2390.00,91.08
2389.00,91.09
2388.00,91.08
2387.00,91.06
2386.00,91.02
2385.00,90.98
2384.00,90.93
2383.00,90.88
2382.00,90.82
2381.00,90.77
2380.00,90.73
2379.00,90.71
2378.00,90.68
2377.00,90.65
2376.00,90.63
2375.00,90.63
2374.00,90.66
2373.00,90.69
2372.00,90.69
2371.00,90.67
2370.00,90.64
2369.00,90.63
2368.00,90.65
2367.00,90.65
2366.00,90.58
2365.00,90.44
2364.00,90.31
2363.00,90.24
2362.00,90.22
2361.00,90.23
2360.00,90.22
2359.00,90.21
2358.00,90.21
2357.00,90.26
2356.00,90.36
2355.00,90.46
2354.00,90.52
2353.00,90.53
2352.00,90.51
2351.00,90.46
2350.00,90.39
2349.00,90.29
2348.00,90.17
2347.00,90.06
2346.00,89.98
2345.00,89.94
2344.00,89.91
2343.00,89.89
2342.00,89.89
2341.00,89.91
2340.00,89.97
2339.00,90.07
2338.00,90.19
2337.00,90.31
2336.00,90.38
2335.00,90.38
2334.00,90.33
2333.00,90.26
2332.00,90.25
2331.00,90.29
2330.00,90.36
2329.00,90.38
2328.00,90.34
2327.00,90.27
2326.00,90.16
2325.00,90.07
2324.00,90.00
2323.00,89.99
2322.00,89.99
2321.00,89.98
2320.00,89.98
2319.00,90.00
2318.00,90.04
2317.00,90.06
2316.00,90.05
2315.00,90.03
2314.00,90.04
2313.00,90.07
2312.00,90.12
2311.00,90.15
2310.00,90.16
2309.00,90.14
2308.00,90.12
2307.00,90.13
2306.00,90.17
2305.00,90.19
2304.00,90.18
2303.00,90.15
2302.00,90.12
2301.00,90.09
2300.00,90.07
2299.00,90.06
2298.00,90.06
2297.00,90.07
2296.00,90.08
2295.00,90.07
2294.00,90.04
2293.00,89.97
2292.00,89.88
2291.00,89.82
2290.00,89.82
2289.00,89.86
2288.00,89.91
2287.00,89.95
2286.00,89.98
2285.00,89.98
2284.00,89.96
2283.00,89.92
2282.00,89.86
2281.00,89.80
2280.00,89.77
2279.00,89.77
2278.00,89.79
2277.00,89.80
2276.00,89.82
2275.00,89.84
2274.00,89.88
2273.00,89.92
2272.00,89.92
2271.00,89.88
2270.00,89.82
2269.00,89.74
2268.00,89.67
2267.00,89.63
2266.00,89.63
2265.00,89.64
2264.00,89.63
2263.00,89.60
2262.00,89.55
2261.00,89.50
2260.00,89.47
2259.00,89.45
2258.00,89.44
2257.00,89.41
2256.00,89.37
2255.00,89.35
2254.00,89.34
2253.00,89.36
2252.00,89.38
2251.00,89.41
2250.00,89.43
2249.00,89.46
2248.00,89.49
2247.00,89.51
2246.00,89.50
2245.00,89.44
2244.00,89.35
2243.00,89.32
2242.00,89.40
2241.00,89.51
2240.00,89.59
2239.00,89.57
2238.00,89.49
2237.00,89.41
2236.00,89.36
2235.00,89.36
2234.00,89.40
2233.00,89.41
2232.00,89.37
2231.00,89.30
2230.00,89.24
2229.00,89.18
2228.00,89.13
2227.00,89.07
2226.00,89.02
2225.00,88.98
2224.00,88.96
2223.00,88.99
2222.00,89.03
2221.00,89.07
2220.00,89.07
2219.00,89.06
2218.00,89.08
2217.00,89.12
2216.00,89.15
2215.00,89.17
2214.00,89.18
2213.00,89.18
2212.00,89.16
2211.00,89.10
2210.00,89.04
2209.00,88.99
2208.00,88.94
2207.00,88.92
2206.00,88.89
2205.00,88.88
2204.00,88.86
2203.00,88.85
2202.00,88.83
2201.00,88.79
2200.00,88.74
2199.00,88.70
2198.00,88.68
2197.00,88.68
2196.00,88.69
2195.00,88.69
2194.00,88.69
2193.00,88.67
2192.00,88.69
2191.00,88.75
2190.00,88.82
2189.00,88.82
2188.00,88.74
2187.00,88.60
2186.00,88.48
2185.00,88.43
2184.00,88.42
2183.00,88.44
2182.00,88.43
2181.00,88.40
2180.00,88.38
2179.00,88.40
2178.00,88.44
2177.00,88.45
2176.00,88.44
2175.00,88.44
2174.00,88.46
2173.00,88.47
2172.00,88.45
2171.00,88.39
2170.00,88.31
2169.00,88.23
2168.00,88.17
2167.00,88.12
2166.00,88.09
2165.00,88.05
2164.00,88.02
2163.00,88.05
2162.00,88.12
2161.00,88.18
2160.00,88.22
2159.00,88.23
2158.00,88.25
2157.00,88.25
2156.00,88.23
2155.00,88.24
2154.00,88.30
2153.00,88.38
2152.00,88.46
2151.00,88.50
2150.00,88.49
2149.00,88.42
2148.00,88.35
2147.00,88.31
2146.00,88.34
2145.00,88.38
2144.00,88.41
2143.00,88.39
2142.00,88.34
2141.00,88.26
2140.00,88.16
2139.00,88.06
2138.00,87.97
2137.00,87.93
2136.00,87.96
2135.00,88.05
2134.00,88.18
2133.00,88.31
2132.00,88.40
2131.00,88.45
2130.00,88.46
2129.00,88.43
2128.00,88.38
2127.00,88.33
2126.00,88.31
2125.00,88.29
2124.00,88.27
2123.00,88.27
2122.00,88.27
2121.00,88.26
2120.00,88.25
2119.00,88.24
2118.00,88.22
2117.00,88.21
2116.00,88.19
2115.00,88.17
2114.00,88.17
2113.00,88.17
2112.00,88.17
2111.00,88.17
2110.00,88.15
2109.00,88.13
2108.00,88.12
2107.00,88.13
2106.00,88.13
2105.00,88.14
2104.00,88.16
2103.00,88.19
2102.00,88.17
2101.00,88.11
2100.00,88.06
2099.00,88.10
2098.00,88.21
2097.00,88.33
2096.00,88.39
2095.00,88.37
2094.00,88.30
2093.00,88.21
2092.00,88.13
2091.00,88.08
2090.00,88.06
2089.00,88.07
2088.00,88.09
2087.00,88.12
2086.00,88.15
2085.00,88.17
2084.00,88.18
2083.00,88.17
2082.00,88.15
2081.00,88.11
2080.00,88.10
2079.00,88.14
2078.00,88.20
2077.00,88.24
2076.00,88.25
2075.00,88.26
2074.00,88.27
2073.00,88.28
2072.00,88.28
2071.00,88.28
2070.00,88.28
2069.00,88.27
2068.00,88.24
2067.00,88.24
2066.00,88.25
2065.00,88.26
2064.00,88.26
2063.00,88.26
2062.00,88.27
2061.00,88.27
2060.00,88.23
2059.00,88.16
2058.00,88.10
2057.00,88.09
2056.00,88.13
2055.00,88.20
2054.00,88.24
2053.00,88.19
2052.00,88.09
2051.00,88.02
2050.00,88.03
2049.00,88.09
2048.00,88.14
2047.00,88.18
2046.00,88.24
2045.00,88.31
2044.00,88.37
2043.00,88.41
2042.00,88.42
2041.00,88.40
2040.00,88.33
2039.00,88.26
2038.00,88.24
2037.00,88.31
2036.00,88.42
2035.00,88.52
2034.00,88.56
2033.00,88.51
2032.00,88.44
2031.00,88.42
2030.00,88.47
2029.00,88.55
2028.00,88.62
2027.00,88.69
2026.00,88.78
2025.00,88.84
2024.00,88.83
2023.00,88.75
2022.00,88.66
2021.00,88.60
2020.00,88.57
2019.00,88.59
2018.00,88.66
2017.00,88.77
2016.00,88.86
2015.00,88.92
2014.00,88.95
2013.00,88.93
2012.00,88.88
2011.00,88.80
2010.00,88.73
2009.00,88.70
2008.00,88.75
2007.00,88.89
2006.00,89.05
2005.00,89.13
2004.00,89.09
2003.00,88.99
2002.00,88.94
2001.00,88.94
2000.00,88.96
1999.00,88.98
1998.00,88.99
1997.00,89.01
1996.00,89.04
1995.00,89.06
1994.00,89.03
1993.00,88.97
1992.00,88.93
1991.00,88.96
1990.00,89.00
1989.00,88.95
1988.00,88.81
1987.00,88.66
1986.00,88.57
1985.00,88.59
1984.00,88.66
1983.00,88.75
1982.00,88.82
1981.00,88.83
1980.00,88.80
1979.00,88.79
1978.00,88.85
1977.00,88.98
1976.00,89.11
1975.00,89.19
1974.00,89.20
1973.00,89.15
1972.00,89.10
1971.00,89.10
1970.00,89.13
1969.00,89.15
1968.00,89.18
1967.00,89.25
1966.00,89.33
1965.00,89.36
1964.00,89.29
1963.00,89.18
1962.00,89.10
1961.00,89.08
1960.00,89.11
1959.00,89.20
1958.00,89.30
1957.00,89.38
1956.00,89.41
1955.00,89.42
1954.00,89.42
1953.00,89.42
1952.00,89.42
1951.00,89.44
1950.00,89.49
1949.00,89.51
1948.00,89.50
1947.00,89.47
1946.00,89.47
1945.00,89.51
1944.00,89.56
1943.00,89.61
1942.00,89.65
1941.00,89.67
1940.00,89.66
1939.00,89.64
1938.00,89.64
1937.00,89.65
1936.00,89.68
1935.00,89.69
1934.00,89.68
1933.00,89.65
1932.00,89.62
1931.00,89.63
1930.00,89.67
1929.00,89.71
1928.00,89.73
1927.00,89.75
1926.00,89.77
1925.00,89.75
1924.00,89.70
1923.00,89.66
1922.00,89.66
1921.00,89.67
1920.00,89.68
1919.00,89.67
1918.00,89.67
1917.00,89.69
1916.00,89.74
1915.00,89.79
1914.00,89.86
1913.00,89.89
1912.00,89.89
1911.00,89.85
1910.00,89.80
1909.00,89.75
1908.00,89.74
1907.00,89.78
1906.00,89.84
1905.00,89.87
1904.00,89.86
1903.00,89.86
1902.00,89.87
1901.00,89.88
1900.00,89.87
1899.00,89.85
1898.00,89.83
1897.00,89.81
1896.00,89.82
1895.00,89.86
1894.00,89.93
1893.00,89.98
1892.00,89.96
1891.00,89.91
1890.00,89.85
1889.00,89.82
1888.00,89.82
1887.00,89.84
1886.00,89.86
1885.00,89.84
1884.00,89.81
1883.00,89.80
1882.00,89.84
1881.00,89.90
1880.00,89.95
1879.00,89.95
1878.00,89.93
1877.00,89.88
1876.00,89.86
1875.00,89.87
1874.00,89.91
1873.00,89.91
1872.00,89.87
1871.00,89.82
1870.00,89.79
1869.00,89.83
1868.00,89.88
1867.00,89.91
1866.00,89.90
1865.00,89.86
1864.00,89.85
1863.00,89.86
1862.00,89.90
1861.00,89.92
1860.00,89.91
1859.00,89.90
1858.00,89.91
1857.00,89.92
1856.00,89.93
1855.00,89.92
1854.00,89.91
1853.00,89.90
1852.00,89.88
1851.00,89.87
1850.00,89.86
1849.00,89.82
1848.00,89.76
1847.00,89.73
1846.00,89.75
1845.00,89.79
1844.00,89.81
1843.00,89.82
1842.00,89.82
1841.00,89.81
1840.00,89.80
1839.00,89.79
1838.00,89.81
1837.00,89.84
1836.00,89.84
1835.00,89.83
1834.00,89.81
1833.00,89.76
1832.00,89.69
1831.00,89.65
1830.00,89.67
1829.00,89.74
1828.00,89.79
1827.00,89.80
1826.00,89.78
1825.00,89.76
1824.00,89.74
1823.00,89.72
1822.00,89.73
1821.00,89.73
1820.00,89.73
1819.00,89.74
1818.00,89.76
1817.00,89.77
1816.00,89.77
1815.00,89.76
1814.00,89.75
1813.00,89.71
1812.00,89.67
1811.00,89.64
1810.00,89.63
1809.00,89.65
1808.00,89.67
1807.00,89.69
1806.00,89.69
1805.00,89.66
1804.00,89.61
1803.00,89.57
1802.00,89.55
1801.00,89.56
1800.00,89.57
1799.00,89.57
1798.00,89.56
1797.00,89.53
1796.00,89.50
1795.00,89.48
1794.00,89.46
1793.00,89.44
1792.00,89.41
1791.00,89.41
1790.00,89.44
1789.00,89.45
1788.00,89.45
1787.00,89.42
1786.00,89.38
1785.00,89.34
1784.00,89.31
1783.00,89.30
1782.00,89.29
1781.00,89.27
1780.00,89.24
1779.00,89.22
1778.00,89.20
1777.00,89.18
1776.00,89.13
1775.00,89.07
1774.00,89.01
1773.00,88.95
1772.00,88.92
1771.00,88.94
1770.00,88.97
1769.00,88.98
1768.00,88.95
1767.00,88.91
1766.00,88.87
1765.00,88.84
1764.00,88.80
1763.00,88.76
1762.00,88.72
1761.00,88.68
1760.00,88.62
1759.00,88.56
1758.00,88.51
1757.00,88.47
1756.00,88.42
1755.00,88.36
1754.00,88.30
1753.00,88.24
1752.00,88.18
1751.00,88.12
1750.00,88.06
1749.00,87.98
1748.00,87.90
1747.00,87.85
1746.00,87.84
1745.00,87.83
1744.00,87.80
1743.00,87.75
1742.00,87.69
1741.00,87.59
1740.00,87.46
1739.00,87.36
1738.00,87.32
1737.00,87.29
1736.00,87.21
1735.00,87.04
1734.00,86.85
1733.00,86.71
1732.00,86.64
1731.00,86.60
1730.00,86.56
1729.00,86.50
1728.00,86.41
1727.00,86.32
1726.00,86.22
1725.00,86.11
1724.00,85.96
1723.00,85.82
1722.00,85.71
1721.00,85.62
1720.00,85.49
1719.00,85.31
1718.00,85.08
1717.00,84.86
1716.00,84.68
1715.00,84.55
1714.00,84.46
1713.00,84.36
1712.00,84.21
1711.00,84.05
1710.00,83.89
1709.00,83.73
1708.00,83.56
1707.00,83.35
1706.00,83.10
1705.00,82.82
1704.00,82.59
1703.00,82.44
1702.00,82.32
1701.00,82.11
1700.00,81.77
1699.00,81.45
1698.00,81.23
1697.00,80.97
1696.00,80.66
1695.00,80.40
1694.00,80.24
1693.00,80.09
1692.00,79.87
1691.00,79.59
1690.00,79.25
1689.00,78.91
1688.00,78.61
1687.00,78.38
1686.00,78.17
1685.00,77.83
1684.00,77.32
1683.00,76.93
1682.00,76.73
1681.00,76.54
1680.00,76.32
1679.00,76.08
1678.00,75.85
1677.00,75.57
1676.00,75.19
1675.00,74.75
1674.00,74.43
1673.00,74.23
1672.00,74.03
1671.00,73.78
1670.00,73.45
1669.00,73.08
1668.00,72.74
1667.00,72.49
1666.00,72.29
1665.00,72.07
1664.00,71.77
1663.00,71.38
1662.00,71.01
1661.00,70.73
1660.00,70.49
1659.00,70.26
1658.00,70.06
1657.00,69.90
1656.00,69.74
1655.00,69.53
1654.00,69.14
1653.00,68.59
1652.00,68.28
1651.00,68.18
1650.00,68.14
1649.00,68.06
1648.00,67.85
1647.00,67.49
1646.00,67.21
1645.00,67.08
1644.00,66.98
1643.00,66.88
1642.00,66.79
1641.00,66.71
1640.00,66.63
1639.00,66.53
1638.00,66.42
1637.00,66.30
1636.00,66.23
1635.00,66.28
1634.00,66.41
1633.00,66.51
1632.00,66.56
1631.00,66.60
1630.00,66.67
1629.00,66.78
1628.00,66.92
1627.00,67.08
1626.00,67.25
1625.00,67.43
1624.00,67.63
1623.00,67.86
1622.00,68.09
1621.00,68.30
1620.00,68.47
1619.00,68.64
1618.00,68.87
1617.00,69.22
1616.00,69.62
1615.00,69.95
1614.00,70.21
1613.00,70.44
1612.00,70.66
1611.00,70.89
1610.00,71.15
1609.00,71.46
1608.00,71.78
1607.00,72.10
1606.00,72.38
1605.00,72.65
1604.00,72.90
1603.00,73.14
1602.00,73.39
1601.00,73.64
1600.00,73.89
1599.00,74.13
1598.00,74.36
1597.00,74.57
1596.00,74.77
1595.00,74.96
1594.00,75.14
1593.00,75.32
1592.00,75.51
1591.00,75.69
1590.00,75.86
1589.00,76.04
1588.00,76.21
1587.00,76.37
1586.00,76.52
1585.00,76.68
1584.00,76.82
1583.00,76.95
1582.00,77.07
1581.00,77.18
1580.00,77.28
1579.00,77.34
1578.00,77.37
1577.00,77.43
1576.00,77.56
1575.00,77.72
1574.00,77.84
1573.00,77.92
1572.00,77.99
1571.00,78.06
1570.00,78.14
1569.00,78.23
1568.00,78.31
1567.00,78.37
1566.00,78.42
1565.00,78.47
1564.00,78.52
1563.00,78.56
1562.00,78.58
1561.00,78.57
1560.00,78.51
1559.00,78.39
1558.00,78.41
1557.00,78.52
1556.00,78.63
1555.00,78.74
1554.00,78.82
1553.00,78.88
1552.00,78.92
1551.00,78.94
1550.00,78.98
1549.00,79.03
1548.00,79.09
1547.00,79.12
1546.00,79.12
1545.00,79.11
1544.00,79.12
1543.00,79.15
1542.00,79.18
1541.00,79.23
1540.00,79.36
1539.00,79.51
1538.00,79.62
1537.00,79.70
1536.00,79.76
1535.00,79.81
1534.00,79.88
1533.00,79.98
1532.00,80.10
1531.00,80.19
1530.00,80.26
1529.00,80.33
1528.00,80.39
1527.00,80.44
1526.00,80.49
1525.00,80.54
1524.00,80.59
1523.00,80.63
1522.00,80.65
1521.00,80.68
1520.00,80.73
1519.00,80.77
1518.00,80.80
1517.00,80.87
1516.00,80.98
1515.00,81.08
1514.00,81.15
1513.00,81.20
1512.00,81.23
1511.00,81.25
1510.00,81.27
1509.00,81.27
1508.00,81.26
1507.00,81.33
1506.00,81.49
1505.00,81.60
1504.00,81.66
1503.00,81.70
1502.00,81.73
1501.00,81.75
1500.00,81.76
1499.00,81.75
1498.00,81.76
1497.00,81.80
1496.00,81.88
1495.00,81.95
1494.00,81.99
1493.00,82.00
1492.00,81.98
1491.00,81.95
1490.00,81.92
1489.00,81.93
1488.00,81.98
1487.00,82.04
1486.00,82.08
1485.00,82.10
1484.00,82.11
1483.00,82.11
1482.00,82.10
1481.00,82.10
1480.00,82.10
1479.00,82.10
1478.00,82.08
1477.00,82.06
1476.00,82.03
1475.00,82.00
1474.00,81.96
1473.00,81.91
1472.00,81.90
1471.00,81.93
1470.00,81.95
1469.00,81.95
1468.00,81.94
1467.00,81.91
1466.00,81.88
1465.00,81.86
1464.00,81.88
1463.00,81.92
1462.00,81.94
1461.00,81.93
1460.00,81.91
1459.00,81.86
1458.00,81.80
1457.00,81.76
1456.00,81.80
1455.00,81.87
1454.00,81.93
1453.00,81.97
1452.00,82.00
1451.00,82.02
1450.00,82.03
1449.00,82.04
1448.00,82.05
1447.00,82.06
1446.00,82.08
1445.00,82.09
1444.00,82.09
1443.00,82.09
1442.00,82.10
1441.00,82.12
1440.00,82.14
1439.00,82.14
1438.00,82.14
1437.00,82.14
1436.00,82.15
1435.00,82.17
1434.00,82.20
1433.00,82.21
1432.00,82.21
1431.00,82.18
1430.00,82.14
1429.00,82.12
1428.00,82.12
1427.00,82.13
1426.00,82.11
1425.00,82.07
1424.00,82.02
1423.00,81.98
1422.00,81.98
1421.00,81.98
1420.00,81.96
1419.00,81.92
1418.00,81.87
1417.00,81.83
1416.00,81.81
1415.00,81.79
1414.00,81.76
1413.00,81.73
1412.00,81.69
1411.00,81.67
1410.00,81.67
1409.00,81.69
1408.00,81.71
1407.00,81.72
1406.00,81.71
1405.00,81.70
1404.00,81.72
1403.00,81.77
1402.00,81.81
1401.00,81.84
1400.00,81.85
1399.00,81.86
1398.00,81.86
1397.00,81.86
1396.00,81.88
1395.00,81.91
1394.00,81.98
1393.00,82.04
1392.00,82.09
1391.00,82.12
1390.00,82.14
1389.00,82.15
1388.00,82.16
1387.00,82.19
1386.00,82.23
1385.00,82.25
1384.00,82.26
1383.00,82.25
1382.00,82.23
1381.00,82.22
1380.00,82.22
1379.00,82.22
1378.00,82.23
1377.00,82.24
1376.00,82.24
1375.00,82.25
1374.00,82.26
1373.00,82.27
1372.00,82.28
1371.00,82.29
1370.00,82.30
1369.00,82.31
1368.00,82.32
1367.00,82.35
1366.00,82.36
1365.00,82.35
1364.00,82.31
1363.00,82.27
1362.00,82.26
1361.00,82.28
1360.00,82.31
1359.00,82.34
1358.00,82.35
1357.00,82.35
1356.00,82.34
1355.00,82.32
1354.00,82.31
1353.00,82.30
1352.00,82.30
1351.00,82.30
1350.00,82.30
1349.00,82.30
1348.00,82.31
1347.00,82.34
1346.00,82.37
1345.00,82.39
1344.00,82.41
1343.00,82.40
1342.00,82.38
1341.00,82.36
1340.00,82.35
1339.00,82.36
1338.00,82.38
1337.00,82.40
1336.00,82.41
1335.00,82.41
1334.00,82.42
1333.00,82.42
1332.00,82.43
1331.00,82.44
1330.00,82.45
1329.00,82.47
1328.00,82.50
1327.00,82.53
1326.00,82.54
1325.00,82.54
1324.00,82.53
1323.00,82.52
1322.00,82.51
1321.00,82.50
1320.00,82.48
1319.00,82.45
1318.00,82.44
1317.00,82.43
1316.00,82.43
1315.00,82.44
1314.00,82.45
1313.00,82.47
1312.00,82.48
1311.00,82.48
1310.00,82.48
1309.00,82.48
1308.00,82.49
1307.00,82.50
1306.00,82.52
1305.00,82.54
1304.00,82.56
1303.00,82.58
1302.00,82.60
1301.00,82.60
1300.00,82.60
1299.00,82.60
1298.00,82.60
1297.00,82.62
1296.00,82.64
1295.00,82.66
1294.00,82.67
1293.00,82.67
1292.00,82.66
1291.00,82.66
1290.00,82.64
1289.00,82.64
1288.00,82.65
1287.00,82.67
1286.00,82.69
1285.00,82.71
1284.00,82.72
1283.00,82.71
1282.00,82.70
1281.00,82.69
1280.00,82.70
1279.00,82.72
1278.00,82.74
1277.00,82.76
1276.00,82.75
1275.00,82.74
1274.00,82.73
1273.00,82.73
1272.00,82.72
1271.00,82.71
1270.00,82.70
1269.00,82.70
1268.00,82.71
1267.00,82.72
1266.00,82.72
1265.00,82.71
1264.00,82.68
1263.00,82.62
1262.00,82.57
1261.00,82.55
1260.00,82.55
1259.00,82.57
1258.00,82.58
1257.00,82.58
1256.00,82.58
1255.00,82.56
1254.00,82.52
1253.00,82.48
1252.00,82.44
1251.00,82.41
1250.00,82.39
1249.00,82.38
1248.00,82.37
1247.00,82.35
1246.00,82.32
1245.00,82.29
1244.00,82.27
1243.00,82.26
1242.00,82.24
1241.00,82.23
1240.00,82.23
1239.00,82.23
1238.00,82.23
1237.00,82.23
1236.00,82.24
1235.00,82.26
1234.00,82.28
1233.00,82.30
1232.00,82.31
1231.00,82.32
1230.00,82.32
1229.00,82.32
1228.00,82.32
1227.00,82.33
1226.00,82.35
1225.00,82.37
1224.00,82.40
1223.00,82.42
1222.00,82.43
1221.00,82.44
1220.00,82.47
1219.00,82.49
1218.00,82.51
1217.00,82.50
1216.00,82.50
1215.00,82.49
1214.00,82.49
1213.00,82.48
1212.00,82.48
1211.00,82.48
1210.00,82.48
1209.00,82.48
1208.00,82.48
1207.00,82.49
1206.00,82.49
1205.00,82.49
1204.00,82.50
1203.00,82.51
1202.00,82.53
1201.00,82.56
1200.00,82.58
1199.00,82.59
1198.00,82.59
1197.00,82.58
1196.00,82.57
1195.00,82.57
1194.00,82.56
1193.00,82.56
1192.00,82.58
1191.00,82.60
1190.00,82.61
1189.00,82.61
1188.00,82.61
1187.00,82.60
1186.00,82.60
1185.00,82.59
1184.00,82.59
1183.00,82.59
1182.00,82.59
1181.00,82.59
1180.00,82.60
1179.00,82.61
1178.00,82.61
1177.00,82.60
1176.00,82.58
1175.00,82.55
1174.00,82.52
1173.00,82.50
1172.00,82.49
1171.00,82.48
1170.00,82.47
1169.00,82.45
1168.00,82.45
1167.00,82.45
1166.00,82.45
1165.00,82.45
1164.00,82.45
1163.00,82.46
1162.00,82.47
1161.00,82.48
1160.00,82.49
1159.00,82.50
1158.00,82.49
1157.00,82.47
1156.00,82.44
1155.00,82.41
1154.00,82.40
1153.00,82.40
1152.00,82.40
1151.00,82.40
1150.00,82.38
1149.00,82.36
1148.00,82.34
1147.00,82.32
1146.00,82.30
1145.00,82.28
1144.00,82.26
1143.00,82.25
1142.00,82.25
1141.00,82.25
1140.00,82.24
1139.00,82.24
1138.00,82.24
1137.00,82.23
1136.00,82.22
1135.00,82.22
1134.00,82.21
1133.00,82.20
1132.00,82.18
1131.00,82.15
1130.00,82.14
1129.00,82.13
1128.00,82.13
1127.00,82.12
1126.00,82.09
1125.00,82.04
1124.00,81.98
1123.00,81.94
1122.00,81.91
1121.00,81.90
1120.00,81.90
1119.00,81.93
1118.00,81.95
1117.00,81.97
1116.00,81.97
1115.00,81.96
1114.00,81.94
1113.00,81.92
1112.00,81.90
1111.00,81.89
1110.00,81.87
1109.00,81.83
1108.00,81.79
1107.00,81.78
1106.00,81.79
1105.00,81.80
1104.00,81.79
1103.00,81.75
1102.00,81.71
1101.00,81.68
1100.00,81.66
1099.00,81.65
1098.00,81.63
1097.00,81.62
1096.00,81.61
1095.00,81.61
1094.00,81.61
1093.00,81.60
1092.00,81.58
1091.00,81.57
1090.00,81.56
1089.00,81.55
1088.00,81.54
1087.00,81.53
1086.00,81.53
1085.00,81.51
1084.00,81.48
1083.00,81.44
1082.00,81.41
1081.00,81.40
1080.00,81.40
1079.00,81.40
1078.00,81.39
1077.00,81.36
1076.00,81.33
1075.00,81.31
1074.00,81.31
1073.00,81.29
1072.00,81.28
1071.00,81.28
1070.00,81.30
1069.00,81.32
1068.00,81.32
1067.00,81.30
1066.00,81.27
1065.00,81.24
1064.00,81.20
1063.00,81.15
1062.00,81.13
1061.00,81.11
1060.00,81.11
1059.00,81.09
1058.00,81.07
1057.00,81.03
1056.00,81.00
1055.00,80.97
1054.00,80.96
1053.00,80.94
1052.00,80.93
1051.00,80.93
1050.00,80.94
1049.00,80.93
1048.00,80.90
1047.00,80.85
1046.00,80.81
1045.00,80.79
1044.00,80.79
1043.00,80.79
1042.00,80.80
1041.00,80.81
1040.00,80.81
1039.00,80.82
1038.00,80.84
1037.00,80.86
1036.00,80.85
1035.00,80.79
1034.00,80.71
1033.00,80.65
1032.00,80.63
1031.00,80.63
1030.00,80.63
1029.00,80.62
1028.00,80.61
1027.00,80.59
1026.00,80.58
1025.00,80.57
1024.00,80.54
1023.00,80.50
1022.00,80.45
1021.00,80.42
1020.00,80.40
1019.00,80.39
1018.00,80.37
1017.00,80.35
1016.00,80.34
1015.00,80.34
1014.00,80.34
1013.00,80.34
1012.00,80.33
1011.00,80.31
1010.00,80.28
1009.00,80.23
1008.00,80.17
1007.00,80.14
1006.00,80.14
1005.00,80.16
1004.00,80.18
1003.00,80.19
1002.00,80.17
1001.00,80.11
1000.00,80.04
999.00,79.99
998.00,79.96
997.00,79.93
996.00,79.89
995.00,79.84
994.00,79.82
993.00,79.81
992.00,79.80
991.00,79.80
990.00,79.81
989.00,79.81
988.00,79.80
987.00,79.75
986.00,79.67
985.00,79.58
984.00,79.49
983.00,79.42
982.00,79.36
981.00,79.32
980.00,79.28
979.00,79.27
978.00,79.26
977.00,79.24
976.00,79.20
975.00,79.15
974.00,79.11
973.00,79.07
972.00,79.03
971.00,78.99
970.00,78.94
969.00,78.89
968.00,78.85
967.00,78.84
966.00,78.83
965.00,78.82
964.00,78.81
963.00,78.79
962.00,78.74
961.00,78.68
960.00,78.60
959.00,78.53
958.00,78.47
957.00,78.44
956.00,78.42
955.00,78.41
954.00,78.39
953.00,78.35
952.00,78.30
951.00,78.24
950.00,78.19
949.00,78.14
948.00,78.07
947.00,78.01
946.00,77.94
945.00,77.88
944.00,77.82
943.00,77.78
942.00,77.76
941.00,77.75
940.00,77.71
939.00,77.63
938.00,77.51
937.00,77.38
936.00,77.26
935.00,77.16
934.00,77.09
933.00,77.03
932.00,76.98
931.00,76.93
930.00,76.87
929.00,76.79
928.00,76.70
927.00,76.61
926.00,76.54
925.00,76.48
924.00,76.42
923.00,76.37
922.00,76.30
921.00,76.22
920.00,76.12
919.00,76.01
918.00,75.90
917.00,75.78
916.00,75.64
915.00,75.49
914.00,75.33
913.00,75.19
912.00,75.08
911.00,75.03
910.00,75.01
909.00,74.96
908.00,74.86
907.00,74.72
906.00,74.58
905.00,74.47
904.00,74.40
903.00,74.33
902.00,74.23
901.00,74.09
900.00,73.92
899.00,73.75
898.00,73.62
897.00,73.52
896.00,73.41
895.00,73.30
894.00,73.19
893.00,73.09
892.00,72.99
891.00,72.89
890.00,72.76
889.00,72.60
888.00,72.43
887.00,72.28
886.00,72.17
885.00,72.08
884.00,71.98
883.00,71.86
882.00,71.72
881.00,71.56
880.00,71.38
879.00,71.21
878.00,71.06
877.00,70.94
876.00,70.83
875.00,70.71
874.00,70.57
873.00,70.40
872.00,70.21
871.00,70.05
870.00,69.92
869.00,69.82
868.00,69.70
867.00,69.58
866.00,69.47
865.00,69.35
864.00,69.23
863.00,69.07
862.00,68.88
861.00,68.70
860.00,68.56
859.00,68.46
858.00,68.37
857.00,68.25
856.00,68.09
855.00,67.92
854.00,67.74
853.00,67.58
852.00,67.45
851.00,67.34
850.00,67.22
849.00,67.05
848.00,66.85
847.00,66.67
846.00,66.51
845.00,66.35
844.00,66.16
843.00,65.99
842.00,65.85
841.00,65.72
840.00,65.61
839.00,65.53
838.00,65.48
837.00,65.41
836.00,65.29
835.00,65.12
834.00,64.94
833.00,64.75
832.00,64.56
831.00,64.39
830.00,64.23
829.00,64.07
828.00,63.91
827.00,63.78
826.00,63.67
825.00,63.55
824.00,63.40
823.00,63.26
822.00,63.12
821.00,62.97
820.00,62.80
819.00,62.66
818.00,62.57
817.00,62.48
816.00,62.36
815.00,62.21
814.00,62.07
813.00,61.91
812.00,61.74
811.00,61.61
810.00,61.49
809.00,61.37
808.00,61.23
807.00,61.09
806.00,60.98
805.00,60.87
804.00,60.75
803.00,60.63
802.00,60.51
801.00,60.38
800.00,60.21
799.00,60.04
798.00,59.86
797.00,59.66
796.00,59.46
795.00,59.32
794.00,59.25
793.00,59.21
792.00,59.14
791.00,59.04
790.00,58.92
789.00,58.80
788.00,58.66
787.00,58.53
786.00,58.39
785.00,58.24
784.00,58.09
783.00,57.95
782.00,57.83
781.00,57.71
780.00,57.58
779.00,57.48
778.00,57.40
777.00,57.30
776.00,57.16
775.00,57.02
774.00,56.89
773.00,56.74
772.00,56.58
771.00,56.43
770.00,56.29
769.00,56.16
768.00,56.03
767.00,55.92
766.00,55.84
765.00,55.75
764.00,55.65
763.00,55.54
762.00,55.45
761.00,55.35
760.00,55.22
759.00,55.10
758.00,55.01
757.00,54.93
756.00,54.84
755.00,54.74
754.00,54.64
753.00,54.53
752.00,54.42
751.00,54.32
750.00,54.23
749.00,54.12
748.00,53.99
747.00,53.89
746.00,53.84
745.00,53.75
744.00,53.60
743.00,53.41
742.00,53.24
741.00,53.09
740.00,52.93
739.00,52.80
738.00,52.73
737.00,52.70
736.00,52.68
735.00,52.65
734.00,52.60
733.00,52.52
732.00,52.41
731.00,52.29
730.00,52.19
729.00,52.08
728.00,51.96
727.00,51.87
726.00,51.81
725.00,51.76
724.00,51.68
723.00,51.58
722.00,51.46
721.00,51.34
720.00,51.23
719.00,51.15
718.00,51.06
717.00,50.93
716.00,50.75
715.00,50.60
714.00,50.51
713.00,50.48
712.00,50.47
711.00,50.49
710.00,50.52
709.00,50.49
708.00,50.37
707.00,50.21
706.00,50.05
705.00,49.89
704.00,49.74
703.00,49.63
702.00,49.57
701.00,49.52
700.00,49.43
699.00,49.34
698.00,49.27
697.00,49.19
696.00,49.11
695.00,49.08
694.00,49.10
693.00,49.11
692.00,49.04
691.00,48.94
690.00,48.87
689.00,48.81
688.00,48.74
687.00,48.66
686.00,48.60
685.00,48.53
684.00,48.43
683.00,48.33
682.00,48.24
681.00,48.15
680.00,48.04
679.00,47.94
678.00,47.88
677.00,47.80
676.00,47.71
675.00,47.65
674.00,47.66
673.00,47.67
672.00,47.64
671.00,47.58
670.00,47.53
669.00,47.45
668.00,47.27
667.00,47.08
666.00,47.01
665.00,46.99
664.00,46.97
663.00,46.96
662.00,46.92
661.00,46.80
660.00,46.61
659.00,46.48
658.00,46.47
657.00,46.51
656.00,46.48
655.00,46.38
654.00,46.26
653.00,46.16
652.00,46.09
651.00,46.11
650.00,46.20
649.00,46.24
648.00,46.22
647.00,46.20
646.00,46.23
645.00,46.24
644.00,46.19
643.00,46.15
642.00,46.17
641.00,46.17
640.00,46.10
639.00,46.05
638.00,46.07
637.00,46.10
636.00,46.09
635.00,46.04
634.00,45.95
633.00,45.73
632.00,45.39
631.00,45.10
630.00,44.97
629.00,44.92
628.00,44.86
627.00,44.88
626.00,45.08
625.00,45.35
624.00,45.52
623.00,45.63
622.00,45.81
621.00,46.01
620.00,46.16
619.00,46.28
618.00,46.36
617.00,46.19
616.00,45.74
615.00,45.27
614.00,45.01
613.00,44.83
612.00,44.62
611.00,44.43
610.00,44.32
609.00,44.28
608.00,44.30
607.00,44.40
606.00,44.43
605.00,44.20
604.00,43.88
603.00,43.83
602.00,44.10
601.00,44.28
600.00,44.23
599.00,44.23
598.00,44.52
597.00,44.84
596.00,44.90
595.00,44.78
594.00,44.68
593.00,44.54
592.00,44.21
591.00,43.84
590.00,43.66
589.00,43.57
588.00,43.46
587.00,43.52
586.00,43.88
585.00,44.32
584.00,44.59
583.00,44.73
582.00,44.84
581.00,44.88
580.00,44.93
579.00,45.38
578.00,46.17
577.00,46.62
576.00,46.22
575.00,45.47
574.00,45.19
573.00,45.44
572.00,45.91
571.00,46.40
570.00,46.61
569.00,46.14
568.00,45.05
567.00,44.11
566.00,43.79
565.00,43.73
564.00,43.54
563.00,43.45
562.00,43.78
561.00,44.38
560.00,44.91
559.00,45.23
558.00,45.17
557.00,44.51
556.00,43.51
555.00,42.95
554.00,43.20
553.00,43.77
552.00,44.21
551.00,44.64
550.00,45.11
