Created as New Dataset,Sample 000 By Administrator Date Thursday, December 10 2020
cm-1,%T
4000.00,95.95
3999.00,95.95
3998.00,95.94
3997.00,95.91
3996.00,95.88
3995.00,95.86
3994.00,95.85
3993.00,95.86
3992.00,95.86
3991.00,95.86
3990.00,95.84
3989.00,95.83
3988.00,95.83
3987.00,95.85
3986.00,95.88
3985.00,95.91
3984.00,95.93
3983.00,95.94
3982.00,95.95
3981.00,95.95
3980.00,95.95
3979.00,95.94
3978.00,95.92
3977.00,95.91
3976.00,95.90
3975.00,95.89
3974.00,95.88
3973.00,95.87
3972.00,95.87
3971.00,95.89
3970.00,95.91
3969.00,95.92
3968.00,95.92
3967.00,95.91
3966.00,95.89
3965.00,95.88
3964.00,95.87
3963.00,95.88
3962.00,95.92
3961.00,95.97
3960.00,96.02
3959.00,96.04
3958.00,96.03
3957.00,96.00
3956.00,95.96
3955.00,95.93
3954.00,95.89
3953.00,95.85
3952.00,95.80
3951.00,95.77
3950.00,95.77
3949.00,95.80
3948.00,95.84
3947.00,95.87
3946.00,95.90
3945.00,95.93
3944.00,95.96
3943.00,95.98
3942.00,96.00
3941.00,96.01
3940.00,96.02
3939.00,96.03
3938.00,96.03
3937.00,96.01
3936.00,95.98
3935.00,95.93
3934.00,95.89
3933.00,95.86
3932.00,95.86
3931.00,95.89
3930.00,95.93
3929.00,95.97
3928.00,96.01
3927.00,96.04
3926.00,96.06
3925.00,96.07
3924.00,96.06
3923.00,96.03
3922.00,96.00
3921.00,95.99
3920.00,96.00
3919.00,96.03
3918.00,96.05
3917.00,96.03
3916.00,95.99
3915.00,95.94
3914.00,95.92
3913.00,95.91
3912.00,95.93
3911.00,95.95
3910.00,95.96
3909.00,95.97
3908.00,95.98
3907.00,95.99
3906.00,96.00
3905.00,96.01
3904.00,96.02
3903.00,96.03
3902.00,96.03
3901.00,96.04
3900.00,96.04
3899.00,96.04
3898.00,96.05
3897.00,96.07
3896.00,96.11
3895.00,96.15
3894.00,96.19
3893.00,96.22
3892.00,96.21
3891.00,96.15
3890.00,96.08
3889.00,96.01
3888.00,95.97
3887.00,95.99
3886.00,96.06
3885.00,96.14
3884.00,96.18
3883.00,96.18
3882.00,96.15
3881.00,96.10
3880.00,96.03
3879.00,95.95
3878.00,95.88
3877.00,95.84
3876.00,95.86
3875.00,95.92
3874.00,96.00
3873.00,96.05
3872.00,96.08
3871.00,96.09
3870.00,96.10
3869.00,96.10
3868.00,96.08
3867.00,96.02
3866.00,95.94
3865.00,95.85
3864.00,95.79
3863.00,95.79
3862.00,95.82
3861.00,95.87
3860.00,95.92
3859.00,95.95
3858.00,95.96
3857.00,95.94
3856.00,95.91
3855.00,95.86
3854.00,95.79
3853.00,95.72
3852.00,95.70
3851.00,95.72
3850.00,95.77
3849.00,95.85
3848.00,95.92
3847.00,95.98
3846.00,95.99
3845.00,95.98
3844.00,95.95
3843.00,95.94
3842.00,95.96
3841.00,95.97
3840.00,95.96
3839.00,95.90
3838.00,95.82
3837.00,95.77
3836.00,95.77
3835.00,95.81
3834.00,95.87
3833.00,95.95
3832.00,96.01
3831.00,96.04
3830.00,96.03
3829.00,95.98
3828.00,95.93
3827.00,95.86
3826.00,95.78
3825.00,95.70
3824.00,95.64
3823.00,95.63
3822.00,95.69
3821.00,95.81
3820.00,95.91
3819.00,95.97
3818.00,96.02
3817.00,96.05
3816.00,96.05
3815.00,96.00
3814.00,95.94
3813.00,95.91
3812.00,95.92
3811.00,95.95
3810.00,95.98
3809.00,96.00
3808.00,96.01
3807.00,96.01
3806.00,95.97
3805.00,95.91
3804.00,95.85
3803.00,95.84
3802.00,95.92
3801.00,96.02
3800.00,96.06
3799.00,96.00
3798.00,95.90
3797.00,95.81
3796.00,95.78
3795.00,95.80
3794.00,95.83
3793.00,95.83
3792.00,95.80
3791.00,95.75
3790.00,95.72
3789.00,95.73
3788.00,95.79
3787.00,95.85
3786.00,95.89
3785.00,95.89
3784.00,95.86
3783.00,95.82
3782.00,95.79
3781.00,95.79
3780.00,95.80
3779.00,95.80
3778.00,95.78
3777.00,95.74
3776.00,95.70
3775.00,95.68
3774.00,95.68
3773.00,95.67
3772.00,95.67
3771.00,95.68
3770.00,95.68
3769.00,95.67
3768.00,95.63
3767.00,95.58
3766.00,95.58
3765.00,95.62
3764.00,95.69
3763.00,95.73
3762.00,95.72
3761.00,95.67
3760.00,95.62
3759.00,95.61
3758.00,95.65
3757.00,95.71
3756.00,95.76
3755.00,95.79
3754.00,95.80
3753.00,95.81
3752.00,95.79
3751.00,95.74
3750.00,95.66
3749.00,95.60
3748.00,95.57
3747.00,95.53
3746.00,95.46
3745.00,95.36
3744.00,95.31
3743.00,95.34
3742.00,95.40
3741.00,95.46
3740.00,95.47
3739.00,95.43
3738.00,95.37
3737.00,95.33
3736.00,95.31
3735.00,95.31
3734.00,95.29
3733.00,95.26
3732.00,95.24
3731.00,95.23
3730.00,95.21
3729.00,95.19
3728.00,95.20
3727.00,95.23
3726.00,95.26
3725.00,95.25
3724.00,95.19
3723.00,95.13
3722.00,95.10
3721.00,95.12
3720.00,95.14
3719.00,95.17
3718.00,95.19
3717.00,95.19
3716.00,95.19
3715.00,95.16
3714.00,95.13
3713.00,95.11
3712.00,95.12
3711.00,95.14
3710.00,95.12
3709.00,95.06
3708.00,94.98
3707.00,94.91
3706.00,94.83
3705.00,94.77
3704.00,94.71
3703.00,94.65
3702.00,94.59
3701.00,94.54
3700.00,94.48
3699.00,94.41
3698.00,94.34
3697.00,94.27
3696.00,94.21
3695.00,94.15
3694.00,94.10
3693.00,94.03
3692.00,93.96
3691.00,93.85
3690.00,93.71
3689.00,93.54
3688.00,93.38
3687.00,93.27
3686.00,93.19
3685.00,93.13
3684.00,93.05
3683.00,92.94
3682.00,92.81
3681.00,92.70
3680.00,92.61
3679.00,92.53
3678.00,92.44
3677.00,92.28
3676.00,92.08
3675.00,91.91
3674.00,91.81
3673.00,91.75
3672.00,91.64
3671.00,91.45
3670.00,91.22
3669.00,91.00
3668.00,90.84
3667.00,90.69
3666.00,90.54
3665.00,90.40
3664.00,90.26
3663.00,90.14
3662.00,90.00
3661.00,89.85
3660.00,89.67
3659.00,89.48
3658.00,89.28
3657.00,89.08
3656.00,88.89
3655.00,88.73
3654.00,88.59
3653.00,88.45
3652.00,88.28
3651.00,88.04
3650.00,87.73
3649.00,87.40
3648.00,87.17
3647.00,87.04
3646.00,86.96
3645.00,86.87
3644.00,86.75
3643.00,86.58
3642.00,86.39
3641.00,86.21
3640.00,86.06
3639.00,85.95
3638.00,85.86
3637.00,85.77
3636.00,85.66
3635.00,85.52
3634.00,85.38
3633.00,85.26
3632.00,85.16
3631.00,85.06
3630.00,84.90
3629.00,84.65
3628.00,84.40
3627.00,84.20
3626.00,84.05
3625.00,83.93
3624.00,83.82
3623.00,83.73
3622.00,83.64
3621.00,83.51
3620.00,83.33
3619.00,83.12
3618.00,82.92
3617.00,82.75
3616.00,82.61
3615.00,82.51
3614.00,82.44
3613.00,82.39
3612.00,82.30
3611.00,82.17
3610.00,81.97
3609.00,81.75
3608.00,81.57
3607.00,81.48
3606.00,81.44
3605.00,81.39
3604.00,81.30
3603.00,81.13
3602.00,80.89
3601.00,80.62
3600.00,80.39
3599.00,80.24
3598.00,80.18
3597.00,80.15
3596.00,80.09
3595.00,79.98
3594.00,79.82
3593.00,79.66
3592.00,79.53
3591.00,79.42
3590.00,79.30
3589.00,79.15
3588.00,78.98
3587.00,78.83
3586.00,78.69
3585.00,78.54
3584.00,78.37
3583.00,78.19
3582.00,78.05
3581.00,77.95
3580.00,77.86
3579.00,77.76
3578.00,77.62
3577.00,77.45
3576.00,77.27
3575.00,77.08
3574.00,76.90
3573.00,76.75
3572.00,76.62
3571.00,76.51
3570.00,76.40
3569.00,76.27
3568.00,76.11
3567.00,75.93
3566.00,75.75
3565.00,75.57
3564.00,75.40
3563.00,75.24
3562.00,75.10
3561.00,74.98
3560.00,74.87
3559.00,74.75
3558.00,74.63
3557.00,74.51
3556.00,74.39
3555.00,74.28
3554.00,74.15
3553.00,73.97
3552.00,73.76
3551.00,73.55
3550.00,73.36
3549.00,73.20
3548.00,73.07
3547.00,72.96
3546.00,72.84
3545.00,72.67
3544.00,72.46
3543.00,72.24
3542.00,72.06
3541.00,71.93
3540.00,71.82
3539.00,71.70
3538.00,71.56
3537.00,71.39
3536.00,71.19
3535.00,71.00
3534.00,70.81
3533.00,70.63
3532.00,70.46
3531.00,70.27
3530.00,70.09
3529.00,69.93
3528.00,69.79
3527.00,69.70
3526.00,69.63
3525.00,69.52
3524.00,69.35
3523.00,69.12
3522.00,68.89
3521.00,68.73
3520.00,68.62
3519.00,68.54
3518.00,68.43
3517.00,68.30
3516.00,68.16
3515.00,68.02
3514.00,67.88
3513.00,67.73
3512.00,67.58
3511.00,67.43
3510.00,67.28
3509.00,67.11
3508.00,66.95
3507.00,66.78
3506.00,66.61
3505.00,66.43
3504.00,66.26
3503.00,66.12
3502.00,66.01
3501.00,65.91
3500.00,65.80
3499.00,65.65
3498.00,65.48
3497.00,65.30
3496.00,65.14
3495.00,64.99
3494.00,64.87
3493.00,64.74
3492.00,64.61
3491.00,64.47
3490.00,64.32
3489.00,64.15
3488.00,63.97
3487.00,63.81
3486.00,63.65
3485.00,63.50
3484.00,63.35
3483.00,63.19
3482.00,63.04
3481.00,62.90
3480.00,62.78
3479.00,62.65
3478.00,62.51
3477.00,62.36
3476.00,62.21
3475.00,62.05
3474.00,61.88
3473.00,61.70
3472.00,61.53
3471.00,61.36
3470.00,61.20
3469.00,61.06
3468.00,60.92
3467.00,60.78
3466.00,60.64
3465.00,60.52
3464.00,60.41
3463.00,60.28
3462.00,60.12
3461.00,59.94
3460.00,59.75
3459.00,59.60
3458.00,59.48
3457.00,59.40
3456.00,59.33
3455.00,59.24
3454.00,59.12
3453.00,58.94
3452.00,58.74
3451.00,58.54
3450.00,58.37
3449.00,58.23
3448.00,58.09
3447.00,57.94
3446.00,57.80
3445.00,57.66
3444.00,57.54
3443.00,57.42
3442.00,57.30
3441.00,57.15
3440.00,56.98
3439.00,56.80
3438.00,56.62
3437.00,56.46
3436.00,56.34
3435.00,56.25
3434.00,56.14
3433.00,56.02
3432.00,55.88
3431.00,55.73
3430.00,55.58
3429.00,55.44
3428.00,55.33
3427.00,55.25
3426.00,55.19
3425.00,55.13
3424.00,55.04
3423.00,54.92
3422.00,54.76
3421.00,54.59
3420.00,54.41
3419.00,54.26
3418.00,54.11
3417.00,53.98
3416.00,53.85
3415.00,53.73
3414.00,53.61
3413.00,53.50
3412.00,53.41
3411.00,53.32
3410.00,53.23
3409.00,53.13
3408.00,53.02
3407.00,52.91
3406.00,52.81
3405.00,52.71
3404.00,52.62
3403.00,52.53
3402.00,52.43
3401.00,52.31
3400.00,52.16
3399.00,52.01
3398.00,51.89
3397.00,51.82
3396.00,51.78
3395.00,51.74
3394.00,51.68
3393.00,51.58
3392.00,51.48
3391.00,51.39
3390.00,51.32
3389.00,51.27
3388.00,51.23
3387.00,51.18
3386.00,51.13
3385.00,51.05
3384.00,50.97
3383.00,50.90
3382.00,50.84
3381.00,50.78
3380.00,50.70
3379.00,50.62
3378.00,50.56
3377.00,50.51
3376.00,50.46
3375.00,50.41
3374.00,50.35
3373.00,50.28
3372.00,50.23
3371.00,50.17
3370.00,50.10
3369.00,50.00
3368.00,49.91
3367.00,49.85
3366.00,49.82
3365.00,49.82
3364.00,49.80
3363.00,49.75
3362.00,49.70
3361.00,49.66
3360.00,49.64
3359.00,49.63
3358.00,49.62
3357.00,49.60
3356.00,49.55
3355.00,49.50
3354.00,49.45
3353.00,49.43
3352.00,49.43
3351.00,49.43
3350.00,49.42
3349.00,49.42
3348.00,49.43
3347.00,49.44
3346.00,49.42
3345.00,49.36
3344.00,49.29
3343.00,49.22
3342.00,49.17
3341.00,49.16
3340.00,49.16
3339.00,49.17
3338.00,49.19
3337.00,49.22
3336.00,49.24
3335.00,49.23
3334.00,49.22
3333.00,49.21
3332.00,49.22
3331.00,49.24
3330.00,49.24
3329.00,49.22
3328.00,49.18
3327.00,49.15
3326.00,49.12
3325.00,49.11
3324.00,49.12
3323.00,49.15
3322.00,49.18
3321.00,49.21
3320.00,49.22
3319.00,49.22
3318.00,49.22
3317.00,49.21
3316.00,49.21
3315.00,49.20
3314.00,49.19
3313.00,49.17
3312.00,49.15
3311.00,49.15
3310.00,49.14
3309.00,49.14
3308.00,49.14
3307.00,49.15
3306.00,49.18
3305.00,49.20
3304.00,49.22
3303.00,49.21
3302.00,49.20
3301.00,49.19
3300.00,49.19
3299.00,49.20
3298.00,49.23
3297.00,49.27
3296.00,49.31
3295.00,49.33
3294.00,49.35
3293.00,49.34
3292.00,49.33
3291.00,49.32
3290.00,49.28
3289.00,49.24
3288.00,49.19
3287.00,49.15
3286.00,49.15
3285.00,49.17
3284.00,49.22
3283.00,49.25
3282.00,49.26
3281.00,49.24
3280.00,49.23
3279.00,49.22
3278.00,49.23
3277.00,49.25
3276.00,49.28
3275.00,49.30
3274.00,49.29
3273.00,49.25
3272.00,49.20
3271.00,49.18
3270.00,49.20
3269.00,49.26
3268.00,49.32
3267.00,49.35
3266.00,49.35
3265.00,49.31
3264.00,49.28
3263.00,49.26
3262.00,49.27
3261.00,49.30
3260.00,49.32
3259.00,49.33
3258.00,49.34
3257.00,49.34
3256.00,49.33
3255.00,49.32
3254.00,49.31
3253.00,49.33
3252.00,49.38
3251.00,49.44
3250.00,49.49
3249.00,49.53
3248.00,49.55
3247.00,49.58
3246.00,49.61
3245.00,49.64
3244.00,49.67
3243.00,49.69
3242.00,49.71
3241.00,49.75
3240.00,49.80
3239.00,49.85
3238.00,49.88
3237.00,49.88
3236.00,49.87
3235.00,49.88
3234.00,49.93
3233.00,50.00
3232.00,50.09
3231.00,50.17
3230.00,50.24
3229.00,50.29
3228.00,50.33
3227.00,50.37
3226.00,50.39
3225.00,50.41
3224.00,50.43
3223.00,50.46
3222.00,50.52
3221.00,50.62
3220.00,50.73
3219.00,50.83
3218.00,50.92
3217.00,51.01
3216.00,51.09
3215.00,51.18
3214.00,51.27
3213.00,51.36
3212.00,51.47
3211.00,51.57
3210.00,51.65
3209.00,51.71
3208.00,51.77
3207.00,51.83
3206.00,51.91
3205.00,52.00
3204.00,52.10
3203.00,52.20
3202.00,52.30
3201.00,52.40
3200.00,52.48
3199.00,52.55
3198.00,52.63
3197.00,52.73
3196.00,52.87
3195.00,53.03
3194.00,53.20
3193.00,53.35
3192.00,53.48
3191.00,53.59
3190.00,53.71
3189.00,53.87
3188.00,54.05
3187.00,54.20
3186.00,54.33
3185.00,54.43
3184.00,54.55
3183.00,54.66
3182.00,54.78
3181.00,54.90
3180.00,55.04
3179.00,55.20
3178.00,55.37
3177.00,55.52
3176.00,55.65
3175.00,55.77
3174.00,55.90
3173.00,56.06
3172.00,56.23
3171.00,56.40
3170.00,56.56
3169.00,56.72
3168.00,56.89
3167.00,57.05
3166.00,57.20
3165.00,57.34
3164.00,57.48
3163.00,57.62
3162.00,57.76
3161.00,57.89
3160.00,58.02
3159.00,58.18
3158.00,58.36
3157.00,58.55
3156.00,58.75
3155.00,58.92
3154.00,59.06
3153.00,59.20
3152.00,59.36
3151.00,59.54
3150.00,59.73
3149.00,59.93
3148.00,60.10
3147.00,60.26
3146.00,60.42
3145.00,60.57
3144.00,60.72
3143.00,60.87
3142.00,61.03
3141.00,61.21
3140.00,61.41
3139.00,61.61
3138.00,61.82
3137.00,62.02
3136.00,62.21
3135.00,62.39
3134.00,62.54
3133.00,62.67
3132.00,62.82
3131.00,63.02
3130.00,63.24
3129.00,63.45
3128.00,63.65
3127.00,63.83
3126.00,64.02
3125.00,64.21
3124.00,64.40
3123.00,64.56
3122.00,64.71
3121.00,64.85
3120.00,65.01
3119.00,65.16
3118.00,65.31
3117.00,65.46
3116.00,65.59
3115.00,65.72
3114.00,65.87
3113.00,66.05
3112.00,66.24
3111.00,66.45
3110.00,66.66
3109.00,66.86
3108.00,67.05
3107.00,67.23
3106.00,67.40
3105.00,67.56
3104.00,67.73
3103.00,67.91
3102.00,68.10
3101.00,68.29
3100.00,68.46
3099.00,68.63
3098.00,68.80
3097.00,68.98
3096.00,69.17
3095.00,69.35
3094.00,69.51
3093.00,69.67
3092.00,69.84
3091.00,70.02
3090.00,70.21
3089.00,70.41
3088.00,70.59
3087.00,70.75
3086.00,70.87
3085.00,70.99
3084.00,71.11
3083.00,71.24
3082.00,71.38
3081.00,71.51
3080.00,71.65
3079.00,71.81
3078.00,71.99
3077.00,72.17
3076.00,72.32
3075.00,72.46
3074.00,72.60
3073.00,72.74
3072.00,72.90
3071.00,73.07
3070.00,73.25
3069.00,73.44
3068.00,73.61
3067.00,73.76
3066.00,73.90
3065.00,74.04
3064.00,74.20
3063.00,74.36
3062.00,74.51
3061.00,74.67
3060.00,74.82
3059.00,74.97
3058.00,75.12
3057.00,75.27
3056.00,75.40
3055.00,75.54
3054.00,75.68
3053.00,75.82
3052.00,75.98
3051.00,76.12
3050.00,76.24
3049.00,76.35
3048.00,76.48
3047.00,76.61
3046.00,76.75
3045.00,76.89
3044.00,77.04
3043.00,77.20
3042.00,77.37
3041.00,77.50
3040.00,77.60
3039.00,77.68
3038.00,77.78
3037.00,77.91
3036.00,78.07
3035.00,78.22
3034.00,78.35
3033.00,78.46
3032.00,78.55
3031.00,78.62
3030.00,78.70
3029.00,78.79
3028.00,78.94
3027.00,79.13
3026.00,79.33
3025.00,79.50
3024.00,79.64
3023.00,79.75
3022.00,79.86
3021.00,79.98
3020.00,80.09
3019.00,80.22
3018.00,80.35
3017.00,80.47
3016.00,80.57
3015.00,80.65
3014.00,80.73
3013.00,80.81
3012.00,80.90
3011.00,81.01
3010.00,81.15
3009.00,81.30
3008.00,81.42
3007.00,81.52
3006.00,81.59
3005.00,81.66
3004.00,81.73
3003.00,81.83
3002.00,81.95
3001.00,82.09
3000.00,82.23
2999.00,82.36
2998.00,82.46
2997.00,82.54
2996.00,82.64
2995.00,82.75
2994.00,82.87
2993.00,82.96
2992.00,83.02
2991.00,83.07
2990.00,83.13
2989.00,83.21
2988.00,83.30
2987.00,83.39
2986.00,83.46
2985.00,83.52
2984.00,83.58
2983.00,83.66
2982.00,83.77
2981.00,83.89
2980.00,84.00
2979.00,84.10
2978.00,84.17
2977.00,84.25
2976.00,84.34
2975.00,84.43
2974.00,84.52
2973.00,84.58
2972.00,84.63
2971.00,84.68
2970.00,84.75
2969.00,84.83
2968.00,84.92
2967.00,84.99
2966.00,85.05
2965.00,85.11
2964.00,85.19
2963.00,85.29
2962.00,85.38
2961.00,85.46
2960.00,85.53
2959.00,85.59
2958.00,85.64
2957.00,85.71
2956.00,85.79
2955.00,85.86
2954.00,85.93
2953.00,85.98
2952.00,86.04
2951.00,86.09
2950.00,86.15
2949.00,86.22
2948.00,86.28
2947.00,86.36
2946.00,86.43
2945.00,86.51
2944.00,86.59
2943.00,86.66
2942.00,86.73
2941.00,86.79
2940.00,86.85
2939.00,86.93
2938.00,87.01
2937.00,87.09
2936.00,87.15
2935.00,87.18
2934.00,87.19
2933.00,87.21
2932.00,87.25
2931.00,87.31
2930.00,87.39
2929.00,87.46
2928.00,87.53
2927.00,87.58
2926.00,87.61
2925.00,87.64
2924.00,87.70
2923.00,87.77
2922.00,87.84
2921.00,87.91
2920.00,87.96
2919.00,88.02
2918.00,88.09
2917.00,88.17
2916.00,88.24
2915.00,88.29
2914.00,88.32
2913.00,88.34
2912.00,88.37
2911.00,88.39
2910.00,88.42
2909.00,88.46
2908.00,88.51
2907.00,88.57
2906.00,88.63
2905.00,88.69
2904.00,88.76
2903.00,88.84
2902.00,88.93
2901.00,89.02
2900.00,89.10
2899.00,89.18
2898.00,89.23
2897.00,89.25
2896.00,89.24
2895.00,89.24
2894.00,89.25
2893.00,89.28
2892.00,89.31
2891.00,89.35
2890.00,89.40
2889.00,89.44
2888.00,89.48
2887.00,89.52
2886.00,89.56
2885.00,89.60
2884.00,89.63
2883.00,89.66
2882.00,89.70
2881.00,89.76
2880.00,89.81
2879.00,89.86
2878.00,89.88
2877.00,89.89
2876.00,89.90
2875.00,89.91
2874.00,89.94
2873.00,90.00
2872.00,90.06
2871.00,90.13
2870.00,90.18
2869.00,90.22
2868.00,90.24
2867.00,90.27
2866.00,90.31
2865.00,90.34
2864.00,90.36
2863.00,90.36
2862.00,90.38
2861.00,90.42
2860.00,90.48
2859.00,90.54
2858.00,90.58
2857.00,90.59
2856.00,90.60
2855.00,90.62
2854.00,90.67
2853.00,90.73
2852.00,90.80
2851.00,90.87
2850.00,90.92
2849.00,90.93
2848.00,90.92
2847.00,90.91
2846.00,90.92
2845.00,90.93
2844.00,90.95
2843.00,90.97
2842.00,91.02
2841.00,91.08
2840.00,91.15
2839.00,91.19
2838.00,91.20
2837.00,91.20
2836.00,91.20
2835.00,91.20
2834.00,91.21
2833.00,91.25
2832.00,91.30
2831.00,91.35
2830.00,91.39
2829.00,91.42
2828.00,91.44
2827.00,91.44
2826.00,91.46
2825.00,91.50
2824.00,91.54
2823.00,91.56
2822.00,91.54
2821.00,91.51
2820.00,91.49
2819.00,91.49
2818.00,91.51
2817.00,91.55
2816.00,91.60
2815.00,91.65
2814.00,91.70
2813.00,91.75
2812.00,91.79
2811.00,91.82
2810.00,91.85
2809.00,91.86
2808.00,91.84
2807.00,91.83
2806.00,91.83
2805.00,91.85
2804.00,91.88
2803.00,91.91
2802.00,91.92
2801.00,91.93
2800.00,91.93
2799.00,91.95
2798.00,91.97
2797.00,91.99
2796.00,92.00
2795.00,92.02
2794.00,92.05
2793.00,92.08
2792.00,92.11
2791.00,92.15
2790.00,92.18
2789.00,92.18
2788.00,92.15
2787.00,92.11
2786.00,92.09
2785.00,92.10
2784.00,92.14
2783.00,92.20
2782.00,92.24
2781.00,92.26
2780.00,92.28
2779.00,92.30
2778.00,92.34
2777.00,92.40
2776.00,92.44
2775.00,92.47
2774.00,92.48
2773.00,92.48
2772.00,92.46
2771.00,92.44
2770.00,92.43
2769.00,92.43
2768.00,92.43
2767.00,92.44
2766.00,92.46
2765.00,92.50
2764.00,92.54
2763.00,92.58
2762.00,92.59
2761.00,92.57
2760.00,92.55
2759.00,92.54
2758.00,92.54
2757.00,92.56
2756.00,92.56
2755.00,92.56
2754.00,92.57
2753.00,92.59
2752.00,92.62
2751.00,92.65
2750.00,92.66
2749.00,92.66
2748.00,92.66
2747.00,92.66
2746.00,92.67
2745.00,92.67
2744.00,92.67
2743.00,92.67
2742.00,92.68
2741.00,92.69
2740.00,92.71
2739.00,92.75
2738.00,92.79
2737.00,92.83
2736.00,92.83
2735.00,92.81
2734.00,92.78
2733.00,92.76
2732.00,92.76
2731.00,92.76
2730.00,92.78
2729.00,92.79
2728.00,92.82
2727.00,92.85
2726.00,92.88
2725.00,92.89
2724.00,92.88
2723.00,92.86
2722.00,92.83
2721.00,92.80
2720.00,92.79
2719.00,92.80
2718.00,92.83
2717.00,92.88
2716.00,92.92
2715.00,92.95
2714.00,92.94
2713.00,92.92
2712.00,92.90
2711.00,92.90
2710.00,92.91
2709.00,92.93
2708.00,92.93
2707.00,92.93
2706.00,92.93
2705.00,92.95
2704.00,92.98
2703.00,93.02
2702.00,93.04
2701.00,93.05
2700.00,93.04
2699.00,93.03
2698.00,93.01
2697.00,93.00
2696.00,93.01
2695.00,93.05
2694.00,93.08
2693.00,93.08
2692.00,93.07
2691.00,93.05
2690.00,93.05
2689.00,93.05
2688.00,93.05
2687.00,93.05
2686.00,93.06
2685.00,93.07
2684.00,93.09
2683.00,93.11
2682.00,93.14
2681.00,93.15
2680.00,93.15
2679.00,93.15
2678.00,93.14
2677.00,93.13
2676.00,93.11
2675.00,93.10
2674.00,93.11
2673.00,93.13
2672.00,93.15
2671.00,93.17
2670.00,93.17
2669.00,93.16
2668.00,93.14
2667.00,93.12
2666.00,93.10
2665.00,93.10
2664.00,93.11
2663.00,93.12
2662.00,93.13
2661.00,93.13
2660.00,93.14
2659.00,93.15
2658.00,93.15
2657.00,93.12
2656.00,93.08
2655.00,93.05
2654.00,93.03
2653.00,93.04
2652.00,93.07
2651.00,93.12
2650.00,93.16
2649.00,93.17
2648.00,93.17
2647.00,93.16
2646.00,93.16
2645.00,93.18
2644.00,93.19
2643.00,93.20
2642.00,93.20
2641.00,93.18
2640.00,93.16
2639.00,93.14
2638.00,93.14
2637.00,93.15
2636.00,93.16
2635.00,93.16
2634.00,93.15
2633.00,93.12
2632.00,93.10
2631.00,93.11
2630.00,93.15
2629.00,93.18
2628.00,93.18
2627.00,93.15
2626.00,93.11
2625.00,93.08
2624.00,93.07
2623.00,93.10
2622.00,93.14
2621.00,93.18
2620.00,93.18
2619.00,93.16
2618.00,93.13
2617.00,93.12
2616.00,93.15
2615.00,93.20
2614.00,93.25
2613.00,93.28
2612.00,93.28
2611.00,93.26
2610.00,93.24
2609.00,93.22
2608.00,93.19
2607.00,93.16
2606.00,93.14
2605.00,93.13
2604.00,93.14
2603.00,93.15
2602.00,93.16
2601.00,93.16
2600.00,93.13
2599.00,93.09
2598.00,93.07
2597.00,93.10
2596.00,93.16
2595.00,93.22
2594.00,93.27
2593.00,93.27
2592.00,93.24
2591.00,93.21
2590.00,93.19
2589.00,93.19
2588.00,93.18
2587.00,93.14
2586.00,93.09
2585.00,93.04
2584.00,93.04
2583.00,93.09
2582.00,93.16
2581.00,93.20
2580.00,93.20
2579.00,93.17
2578.00,93.13
2577.00,93.10
2576.00,93.10
2575.00,93.12
2574.00,93.15
2573.00,93.18
2572.00,93.19
2571.00,93.17
2570.00,93.15
2569.00,93.14
2568.00,93.16
2567.00,93.19
2566.00,93.21
2565.00,93.21
2564.00,93.20
2563.00,93.20
2562.00,93.20
2561.00,93.18
2560.00,93.16
2559.00,93.14
2558.00,93.13
2557.00,93.12
2556.00,93.10
2555.00,93.07
2554.00,93.05
2553.00,93.04
2552.00,93.03
2551.00,93.04
2550.00,93.06
2549.00,93.06
2548.00,93.06
2547.00,93.06
2546.00,93.07
2545.00,93.07
2544.00,93.06
2543.00,93.03
2542.00,93.04
2541.00,93.06
2540.00,93.09
2539.00,93.10
2538.00,93.09
2537.00,93.07
2536.00,93.04
2535.00,93.03
2534.00,93.03
2533.00,93.03
2532.00,93.03
2531.00,93.04
2530.00,93.06
2529.00,93.06
2528.00,93.06
2527.00,93.04
2526.00,93.03
2525.00,93.02
2524.00,92.99
2523.00,92.96
2522.00,92.94
2521.00,92.95
2520.00,92.99
2519.00,93.05
2518.00,93.10
2517.00,93.12
2516.00,93.11
2515.00,93.09
2514.00,93.07
2513.00,93.07
2512.00,93.09
2511.00,93.11
2510.00,93.11
2509.00,93.10
2508.00,93.07
2507.00,93.05
2506.00,93.04
2505.00,93.03
2504.00,93.04
2503.00,93.05
2502.00,93.06
2501.00,93.05
2500.00,93.01
2499.00,92.97
2498.00,92.96
2497.00,92.97
2496.00,92.94
2495.00,92.89
2494.00,92.85
2493.00,92.86
2492.00,92.92
2491.00,92.99
2490.00,93.02
2489.00,93.00
2488.00,92.97
2487.00,92.96
2486.00,92.97
2485.00,92.98
2484.00,92.97
2483.00,92.95
2482.00,92.93
2481.00,92.93
2480.00,92.93
2479.00,92.95
2478.00,92.97
2477.00,92.98
2476.00,92.98
2475.00,92.96
2474.00,92.93
2473.00,92.90
2472.00,92.88
2471.00,92.89
2470.00,92.90
2469.00,92.92
2468.00,92.91
2467.00,92.89
2466.00,92.86
2465.00,92.83
2464.00,92.82
2463.00,92.83
2462.00,92.87
2461.00,92.91
2460.00,92.95
2459.00,92.95
2458.00,92.92
2457.00,92.87
2456.00,92.82
2455.00,92.77
2454.00,92.74
2453.00,92.72
2452.00,92.70
2451.00,92.68
2450.00,92.66
2449.00,92.63
2448.00,92.62
2447.00,92.61
2446.00,92.61
2445.00,92.62
2444.00,92.64
2443.00,92.66
2442.00,92.66
2441.00,92.65
2440.00,92.64
2439.00,92.65
2438.00,92.70
2437.00,92.75
2436.00,92.80
2435.00,92.82
2434.00,92.82
2433.00,92.80
2432.00,92.77
2431.00,92.75
2430.00,92.74
2429.00,92.76
2428.00,92.78
2427.00,92.80
2426.00,92.80
2425.00,92.78
2424.00,92.76
2423.00,92.75
2422.00,92.74
2421.00,92.70
2420.00,92.65
2419.00,92.62
2418.00,92.63
2417.00,92.67
2416.00,92.70
2415.00,92.71
2414.00,92.70
2413.00,92.68
2412.00,92.67
2411.00,92.65
2410.00,92.65
2409.00,92.65
2408.00,92.65
2407.00,92.66
2406.00,92.67
2405.00,92.66
2404.00,92.63
2403.00,92.60
2402.00,92.57
2401.00,92.55
2400.00,92.54
2399.00,92.54
2398.00,92.54
2397.00,92.55
2396.00,92.54
2395.00,92.52
2394.00,92.51
2393.00,92.51
2392.00,92.51
2391.00,92.50
2390.00,92.49
2389.00,92.48
2388.00,92.47
2387.00,92.47
2386.00,92.47
2385.00,92.47
2384.00,92.49
2383.00,92.50
2382.00,92.49
2381.00,92.45
2380.00,92.40
2379.00,92.34
2378.00,92.30
2377.00,92.29
2376.00,92.31
2375.00,92.38
2374.00,92.44
2373.00,92.46
2372.00,92.41
2371.00,92.31
2370.00,92.21
2369.00,92.17
2368.00,92.19
2367.00,92.25
2366.00,92.27
2365.00,92.21
2364.00,92.08
2363.00,91.97
2362.00,91.93
2361.00,91.92
2360.00,91.88
2359.00,91.84
2358.00,91.85
2357.00,91.92
2356.00,92.01
2355.00,92.06
2354.00,92.07
2353.00,92.05
2352.00,92.02
2351.00,91.99
2350.00,91.95
2349.00,91.89
2348.00,91.80
2347.00,91.70
2346.00,91.63
2345.00,91.59
2344.00,91.57
2343.00,91.59
2342.00,91.62
2341.00,91.64
2340.00,91.64
2339.00,91.63
2338.00,91.62
2337.00,91.65
2336.00,91.70
2335.00,91.75
2334.00,91.80
2333.00,91.84
2332.00,91.87
2331.00,91.91
2330.00,91.92
2329.00,91.88
2328.00,91.80
2327.00,91.72
2326.00,91.67
2325.00,91.65
2324.00,91.65
2323.00,91.65
2322.00,91.65
2321.00,91.62
2320.00,91.59
2319.00,91.59
2318.00,91.60
2317.00,91.62
2316.00,91.64
2315.00,91.66
2314.00,91.69
2313.00,91.72
2312.00,91.76
2311.00,91.78
2310.00,91.79
2309.00,91.77
2308.00,91.73
2307.00,91.68
2306.00,91.64
2305.00,91.61
2304.00,91.60
2303.00,91.61
2302.00,91.64
2301.00,91.67
2300.00,91.69
2299.00,91.71
2298.00,91.72
2297.00,91.69
2296.00,91.64
2295.00,91.59
2294.00,91.53
2293.00,91.47
2292.00,91.40
2291.00,91.35
2290.00,91.34
2289.00,91.36
2288.00,91.38
2287.00,91.38
2286.00,91.38
2285.00,91.38
2284.00,91.40
2283.00,91.43
2282.00,91.43
2281.00,91.41
2280.00,91.39
2279.00,91.38
2278.00,91.39
2277.00,91.40
2276.00,91.42
2275.00,91.45
2274.00,91.49
2273.00,91.49
2272.00,91.45
2271.00,91.38
2270.00,91.30
2269.00,91.22
2268.00,91.16
2267.00,91.13
2266.00,91.13
2265.00,91.16
2264.00,91.19
2263.00,91.20
2262.00,91.18
2261.00,91.13
2260.00,91.07
2259.00,91.04
2258.00,91.03
2257.00,91.01
2256.00,90.96
2255.00,90.89
2254.00,90.86
2253.00,90.89
2252.00,91.00
2251.00,91.12
2250.00,91.21
2249.00,91.24
2248.00,91.25
2247.00,91.28
2246.00,91.28
2245.00,91.24
2244.00,91.15
2243.00,91.07
2242.00,91.05
2241.00,91.06
2240.00,91.06
2239.00,91.05
2238.00,91.03
2237.00,91.02
2236.00,91.00
2235.00,91.00
2234.00,91.02
2233.00,91.02
2232.00,90.99
2231.00,90.92
2230.00,90.84
2229.00,90.77
2228.00,90.73
2227.00,90.72
2226.00,90.73
2225.00,90.76
2224.00,90.80
2223.00,90.86
2222.00,90.91
2221.00,90.93
2220.00,90.89
2219.00,90.85
2218.00,90.82
2217.00,90.80
2216.00,90.79
2215.00,90.78
2214.00,90.79
2213.00,90.80
2212.00,90.79
2211.00,90.78
2210.00,90.75
2209.00,90.71
2208.00,90.66
2207.00,90.62
2206.00,90.59
2205.00,90.55
2204.00,90.49
2203.00,90.43
2202.00,90.38
2201.00,90.37
2200.00,90.41
2199.00,90.47
2198.00,90.50
2197.00,90.47
2196.00,90.36
2195.00,90.24
2194.00,90.16
2193.00,90.12
2192.00,90.12
2191.00,90.15
2190.00,90.17
2189.00,90.18
2188.00,90.17
2187.00,90.16
2186.00,90.17
2185.00,90.22
2184.00,90.28
2183.00,90.29
2182.00,90.22
2181.00,90.10
2180.00,90.01
2179.00,90.02
2178.00,90.10
2177.00,90.20
2176.00,90.28
2175.00,90.36
2174.00,90.43
2173.00,90.45
2172.00,90.39
2171.00,90.25
2170.00,90.08
2169.00,89.90
2168.00,89.72
2167.00,89.61
2166.00,89.60
2165.00,89.66
2164.00,89.74
2163.00,89.80
2162.00,89.84
2161.00,89.84
2160.00,89.79
2159.00,89.72
2158.00,89.68
2157.00,89.72
2156.00,89.87
2155.00,90.06
2154.00,90.21
2153.00,90.24
2152.00,90.16
2151.00,90.08
2150.00,90.06
2149.00,90.08
2148.00,90.09
2147.00,90.06
2146.00,89.99
2145.00,89.89
2144.00,89.79
2143.00,89.73
2142.00,89.71
2141.00,89.72
2140.00,89.71
2139.00,89.65
2138.00,89.57
2137.00,89.51
2136.00,89.55
2135.00,89.70
2134.00,89.90
2133.00,90.04
2132.00,90.07
2131.00,90.03
2130.00,89.96
2129.00,89.89
2128.00,89.84
2127.00,89.83
2126.00,89.84
2125.00,89.84
2124.00,89.81
2123.00,89.77
2122.00,89.74
2121.00,89.72
2120.00,89.72
2119.00,89.77
2118.00,89.84
2117.00,89.87
2116.00,89.84
2115.00,89.76
2114.00,89.68
2113.00,89.65
2112.00,89.65
2111.00,89.66
2110.00,89.65
2109.00,89.62
2108.00,89.59
2107.00,89.59
2106.00,89.59
2105.00,89.59
2104.00,89.61
2103.00,89.64
2102.00,89.67
2101.00,89.69
2100.00,89.70
2099.00,89.70
2098.00,89.72
2097.00,89.73
2096.00,89.74
2095.00,89.73
2094.00,89.70
2093.00,89.69
2092.00,89.68
2091.00,89.70
2090.00,89.71
2089.00,89.70
2088.00,89.68
2087.00,89.67
2086.00,89.68
2085.00,89.71
2084.00,89.74
2083.00,89.77
2082.00,89.78
2081.00,89.78
2080.00,89.77
2079.00,89.74
2078.00,89.70
2077.00,89.65
2076.00,89.63
2075.00,89.68
2074.00,89.77
2073.00,89.85
2072.00,89.89
2071.00,89.91
2070.00,89.92
2069.00,89.93
2068.00,89.93
2067.00,89.94
2066.00,89.97
2065.00,89.98
2064.00,89.97
2063.00,89.97
2062.00,89.97
2061.00,89.97
2060.00,89.97
2059.00,89.97
2058.00,89.97
2057.00,89.98
2056.00,89.98
2055.00,89.97
2054.00,89.90
2053.00,89.76
2052.00,89.62
2051.00,89.56
2050.00,89.64
2049.00,89.75
2048.00,89.81
2047.00,89.82
2046.00,89.85
2045.00,89.95
2044.00,90.10
2043.00,90.20
2042.00,90.22
2041.00,90.17
2040.00,90.10
2039.00,90.08
2038.00,90.10
2037.00,90.16
2036.00,90.25
2035.00,90.35
2034.00,90.42
2033.00,90.41
2032.00,90.35
2031.00,90.33
2030.00,90.40
2029.00,90.50
2028.00,90.57
2027.00,90.60
2026.00,90.60
2025.00,90.59
2024.00,90.54
2023.00,90.48
2022.00,90.42
2021.00,90.42
2020.00,90.48
2019.00,90.61
2018.00,90.74
2017.00,90.79
2016.00,90.77
2015.00,90.71
2014.00,90.63
2013.00,90.55
2012.00,90.49
2011.00,90.49
2010.00,90.50
2009.00,90.48
2008.00,90.45
2007.00,90.48
2006.00,90.53
2005.00,90.54
2004.00,90.49
2003.00,90.46
2002.00,90.50
2001.00,90.59
2000.00,90.68
1999.00,90.74
1998.00,90.76
1997.00,90.72
1996.00,90.66
1995.00,90.63
1994.00,90.67
1993.00,90.72
1992.00,90.74
1991.00,90.75
1990.00,90.76
1989.00,90.76
1988.00,90.72
1987.00,90.68
1986.00,90.66
1985.00,90.67
1984.00,90.67
1983.00,90.67
1982.00,90.67
1981.00,90.67
1980.00,90.65
1979.00,90.65
1978.00,90.67
1977.00,90.74
1976.00,90.81
1975.00,90.88
1974.00,90.92
1973.00,90.90
1972.00,90.85
1971.00,90.82
1970.00,90.80
1969.00,90.76
1968.00,90.72
1967.00,90.76
1966.00,90.90
1965.00,91.02
1964.00,91.05
1963.00,91.00
1962.00,90.96
1961.00,90.98
1960.00,91.02
1959.00,91.06
1958.00,91.12
1957.00,91.17
1956.00,91.22
1955.00,91.23
1954.00,91.23
1953.00,91.21
1952.00,91.20
1951.00,91.20
1950.00,91.20
1949.00,91.21
1948.00,91.20
1947.00,91.20
1946.00,91.23
1945.00,91.28
1944.00,91.36
1943.00,91.43
1942.00,91.50
1941.00,91.51
1940.00,91.48
1939.00,91.43
1938.00,91.38
1937.00,91.36
1936.00,91.35
1935.00,91.36
1934.00,91.39
1933.00,91.42
1932.00,91.44
1931.00,91.45
1930.00,91.42
1929.00,91.36
1928.00,91.29
1927.00,91.26
1926.00,91.28
1925.00,91.31
1924.00,91.34
1923.00,91.35
1922.00,91.35
1921.00,91.34
1920.00,91.34
1919.00,91.35
1918.00,91.37
1917.00,91.36
1916.00,91.34
1915.00,91.35
1914.00,91.39
1913.00,91.43
1912.00,91.44
1911.00,91.42
1910.00,91.40
1909.00,91.37
1908.00,91.35
1907.00,91.37
1906.00,91.41
1905.00,91.45
1904.00,91.47
1903.00,91.47
1902.00,91.47
1901.00,91.45
1900.00,91.44
1899.00,91.43
1898.00,91.45
1897.00,91.46
1896.00,91.48
1895.00,91.49
1894.00,91.50
1893.00,91.48
1892.00,91.46
1891.00,91.45
1890.00,91.46
1889.00,91.46
1888.00,91.45
1887.00,91.44
1886.00,91.44
1885.00,91.42
1884.00,91.39
1883.00,91.38
1882.00,91.40
1881.00,91.43
1880.00,91.45
1879.00,91.44
1878.00,91.42
1877.00,91.39
1876.00,91.38
1875.00,91.38
1874.00,91.40
1873.00,91.40
1872.00,91.38
1871.00,91.35
1870.00,91.34
1869.00,91.36
1868.00,91.39
1867.00,91.40
1866.00,91.40
1865.00,91.39
1864.00,91.39
1863.00,91.40
1862.00,91.40
1861.00,91.39
1860.00,91.36
1859.00,91.34
1858.00,91.34
1857.00,91.37
1856.00,91.39
1855.00,91.39
1854.00,91.39
1853.00,91.36
1852.00,91.34
1851.00,91.32
1850.00,91.32
1849.00,91.29
1848.00,91.25
1847.00,91.23
1846.00,91.25
1845.00,91.28
1844.00,91.28
1843.00,91.27
1842.00,91.26
1841.00,91.25
1840.00,91.23
1839.00,91.24
1838.00,91.28
1837.00,91.31
1836.00,91.30
1835.00,91.28
1834.00,91.26
1833.00,91.23
1832.00,91.22
1831.00,91.23
1830.00,91.27
1829.00,91.31
1828.00,91.30
1827.00,91.28
1826.00,91.26
1825.00,91.22
1824.00,91.17
1823.00,91.14
1822.00,91.14
1821.00,91.15
1820.00,91.15
1819.00,91.14
1818.00,91.12
1817.00,91.11
1816.00,91.10
1815.00,91.12
1814.00,91.15
1813.00,91.16
1812.00,91.13
1811.00,91.08
1810.00,91.05
1809.00,91.03
1808.00,91.02
1807.00,91.02
1806.00,91.01
1805.00,90.98
1804.00,90.94
1803.00,90.89
1802.00,90.88
1801.00,90.88
1800.00,90.88
1799.00,90.87
1798.00,90.87
1797.00,90.87
1796.00,90.85
1795.00,90.84
1794.00,90.84
1793.00,90.83
1792.00,90.81
1791.00,90.79
1790.00,90.78
1789.00,90.76
1788.00,90.72
1787.00,90.69
1786.00,90.67
1785.00,90.65
1784.00,90.63
1783.00,90.60
1782.00,90.59
1781.00,90.58
1780.00,90.54
1779.00,90.50
1778.00,90.47
1777.00,90.45
1776.00,90.41
1775.00,90.37
1774.00,90.34
1773.00,90.31
1772.00,90.27
1771.00,90.25
1770.00,90.24
1769.00,90.22
1768.00,90.19
1767.00,90.15
1766.00,90.12
1765.00,90.09
1764.00,90.04
1763.00,90.00
1762.00,89.98
1761.00,89.94
1760.00,89.88
1759.00,89.82
1758.00,89.78
1757.00,89.74
1756.00,89.67
1755.00,89.61
1754.00,89.55
1753.00,89.51
1752.00,89.45
1751.00,89.39
1750.00,89.33
1749.00,89.26
1748.00,89.17
1747.00,89.10
1746.00,89.05
1745.00,89.01
1744.00,88.96
1743.00,88.92
1742.00,88.89
1741.00,88.85
1740.00,88.75
1739.00,88.64
1738.00,88.56
1737.00,88.49
1736.00,88.40
1735.00,88.27
1734.00,88.08
1733.00,87.92
1732.00,87.80
1731.00,87.72
1730.00,87.66
1729.00,87.57
1728.00,87.46
1727.00,87.36
1726.00,87.27
1725.00,87.16
1724.00,87.03
1723.00,86.89
1722.00,86.79
1721.00,86.70
1720.00,86.59
1719.00,86.45
1718.00,86.27
1717.00,86.05
1716.00,85.82
1715.00,85.63
1714.00,85.48
1713.00,85.32
1712.00,85.14
1711.00,84.94
1710.00,84.76
1709.00,84.59
1708.00,84.41
1707.00,84.22
1706.00,83.99
1705.00,83.72
1704.00,83.47
1703.00,83.29
1702.00,83.16
1701.00,82.97
1700.00,82.64
1699.00,82.34
1698.00,82.15
1697.00,81.92
1696.00,81.55
1695.00,81.19
1694.00,80.95
1693.00,80.77
1692.00,80.57
1691.00,80.31
1690.00,80.00
1689.00,79.66
1688.00,79.36
1687.00,79.13
1686.00,78.94
1685.00,78.61
1684.00,78.01
1683.00,77.52
1682.00,77.26
1681.00,77.06
1680.00,76.81
1679.00,76.54
1678.00,76.30
1677.00,76.03
1676.00,75.66
1675.00,75.23
1674.00,74.89
1673.00,74.68
1672.00,74.48
1671.00,74.22
1670.00,73.84
1669.00,73.41
1668.00,73.01
1667.00,72.72
1666.00,72.50
1665.00,72.29
1664.00,72.00
1663.00,71.61
1662.00,71.23
1661.00,70.91
1660.00,70.65
1659.00,70.40
1658.00,70.18
1657.00,70.01
1656.00,69.86
1655.00,69.71
1654.00,69.43
1653.00,68.86
1652.00,68.39
1651.00,68.18
1650.00,68.08
1649.00,67.97
1648.00,67.73
1647.00,67.34
1646.00,67.05
1645.00,66.93
1644.00,66.85
1643.00,66.76
1642.00,66.68
1641.00,66.60
1640.00,66.52
1639.00,66.44
1638.00,66.38
1637.00,66.33
1636.00,66.25
1635.00,66.19
1634.00,66.21
1633.00,66.27
1632.00,66.33
1631.00,66.39
1630.00,66.48
1629.00,66.61
1628.00,66.75
1627.00,66.90
1626.00,67.06
1625.00,67.25
1624.00,67.48
1623.00,67.73
1622.00,67.98
1621.00,68.19
1620.00,68.37
1619.00,68.55
1618.00,68.80
1617.00,69.18
1616.00,69.58
1615.00,69.89
1614.00,70.14
1613.00,70.38
1612.00,70.62
1611.00,70.88
1610.00,71.16
1609.00,71.47
1608.00,71.79
1607.00,72.09
1606.00,72.37
1605.00,72.65
1604.00,72.92
1603.00,73.19
1602.00,73.46
1601.00,73.74
1600.00,74.00
1599.00,74.24
1598.00,74.46
1597.00,74.68
1596.00,74.90
1595.00,75.13
1594.00,75.34
1593.00,75.55
1592.00,75.74
1591.00,75.92
1590.00,76.10
1589.00,76.27
1588.00,76.44
1587.00,76.61
1586.00,76.78
1585.00,76.95
1584.00,77.12
1583.00,77.27
1582.00,77.39
1581.00,77.52
1580.00,77.63
1579.00,77.73
1578.00,77.84
1577.00,77.97
1576.00,78.11
1575.00,78.23
1574.00,78.31
1573.00,78.37
1572.00,78.45
1571.00,78.56
1570.00,78.70
1569.00,78.84
1568.00,78.93
1567.00,78.99
1566.00,79.04
1565.00,79.10
1564.00,79.16
1563.00,79.22
1562.00,79.27
1561.00,79.34
1560.00,79.44
1559.00,79.53
1558.00,79.52
1557.00,79.52
1556.00,79.54
1555.00,79.58
1554.00,79.61
1553.00,79.65
1552.00,79.71
1551.00,79.77
1550.00,79.83
1549.00,79.89
1548.00,79.92
1547.00,79.95
1546.00,79.98
1545.00,80.02
1544.00,80.10
1543.00,80.19
1542.00,80.32
1541.00,80.48
1540.00,80.62
1539.00,80.62
1538.00,80.60
1537.00,80.61
1536.00,80.65
1535.00,80.72
1534.00,80.82
1533.00,80.94
1532.00,81.03
1531.00,81.09
1530.00,81.15
1529.00,81.22
1528.00,81.31
1527.00,81.39
1526.00,81.45
1525.00,81.50
1524.00,81.54
1523.00,81.57
1522.00,81.59
1521.00,81.61
1520.00,81.65
1519.00,81.69
1518.00,81.75
1517.00,81.85
1516.00,81.96
1515.00,82.04
1514.00,82.11
1513.00,82.16
1512.00,82.22
1511.00,82.28
1510.00,82.34
1509.00,82.41
1508.00,82.49
1507.00,82.50
1506.00,82.47
1505.00,82.48
1504.00,82.51
1503.00,82.55
1502.00,82.59
1501.00,82.63
1500.00,82.65
1499.00,82.67
1498.00,82.70
1497.00,82.76
1496.00,82.85
1495.00,82.92
1494.00,82.94
1493.00,82.95
1492.00,82.94
1491.00,82.93
1490.00,82.90
1489.00,82.89
1488.00,82.92
1487.00,82.97
1486.00,83.01
1485.00,83.04
1484.00,83.06
1483.00,83.06
1482.00,83.06
1481.00,83.06
1480.00,83.06
1479.00,83.07
1478.00,83.09
1477.00,83.10
1476.00,83.10
1475.00,83.09
1474.00,83.08
1473.00,83.04
1472.00,82.99
1471.00,82.98
1470.00,82.98
1469.00,82.99
1468.00,82.98
1467.00,82.97
1466.00,82.96
1465.00,82.96
1464.00,82.97
1463.00,82.98
1462.00,82.99
1461.00,83.00
1460.00,83.02
1459.00,83.04
1458.00,83.05
1457.00,83.05
1456.00,83.04
1455.00,83.05
1454.00,83.07
1453.00,83.09
1452.00,83.11
1451.00,83.13
1450.00,83.15
1449.00,83.17
1448.00,83.18
1447.00,83.18
1446.00,83.19
1445.00,83.20
1444.00,83.21
1443.00,83.22
1442.00,83.24
1441.00,83.25
1440.00,83.26
1439.00,83.28
1438.00,83.30
1437.00,83.34
1436.00,83.38
1435.00,83.40
1434.00,83.41
1433.00,83.41
1432.00,83.40
1431.00,83.37
1430.00,83.34
1429.00,83.31
1428.00,83.30
1427.00,83.28
1426.00,83.27
1425.00,83.24
1424.00,83.21
1423.00,83.20
1422.00,83.21
1421.00,83.22
1420.00,83.21
1419.00,83.15
1418.00,83.07
1417.00,83.01
1416.00,82.97
1415.00,82.94
1414.00,82.91
1413.00,82.88
1412.00,82.86
1411.00,82.85
1410.00,82.85
1409.00,82.86
1408.00,82.86
1407.00,82.87
1406.00,82.88
1405.00,82.91
1404.00,82.96
1403.00,83.00
1402.00,83.04
1401.00,83.07
1400.00,83.10
1399.00,83.12
1398.00,83.14
1397.00,83.15
1396.00,83.17
1395.00,83.20
1394.00,83.24
1393.00,83.28
1392.00,83.33
1391.00,83.37
1390.00,83.40
1389.00,83.42
1388.00,83.45
1387.00,83.47
1386.00,83.49
1385.00,83.49
1384.00,83.50
1383.00,83.49
1382.00,83.49
1381.00,83.50
1380.00,83.50
1379.00,83.50
1378.00,83.50
1377.00,83.49
1376.00,83.49
1375.00,83.50
1374.00,83.51
1373.00,83.51
1372.00,83.51
1371.00,83.51
1370.00,83.51
1369.00,83.51
1368.00,83.52
1367.00,83.52
1366.00,83.53
1365.00,83.53
1364.00,83.53
1363.00,83.52
1362.00,83.50
1361.00,83.49
1360.00,83.49
1359.00,83.49
1358.00,83.48
1357.00,83.48
1356.00,83.48
1355.00,83.48
1354.00,83.49
1353.00,83.50
1352.00,83.50
1351.00,83.50
1350.00,83.49
1349.00,83.49
1348.00,83.50
1347.00,83.52
1346.00,83.55
1345.00,83.57
1344.00,83.59
1343.00,83.61
1342.00,83.61
1341.00,83.63
1340.00,83.64
1339.00,83.66
1338.00,83.65
1337.00,83.63
1336.00,83.61
1335.00,83.60
1334.00,83.61
1333.00,83.62
1332.00,83.63
1331.00,83.64
1330.00,83.64
1329.00,83.65
1328.00,83.65
1327.00,83.65
1326.00,83.64
1325.00,83.63
1324.00,83.63
1323.00,83.62
1322.00,83.62
1321.00,83.61
1320.00,83.61
1319.00,83.61
1318.00,83.61
1317.00,83.60
1316.00,83.59
1315.00,83.58
1314.00,83.58
1313.00,83.58
1312.00,83.58
1311.00,83.58
1310.00,83.57
1309.00,83.56
1308.00,83.55
1307.00,83.54
1306.00,83.53
1305.00,83.54
1304.00,83.55
1303.00,83.57
1302.00,83.58
1301.00,83.59
1300.00,83.60
1299.00,83.60
1298.00,83.62
1297.00,83.63
1296.00,83.64
1295.00,83.64
1294.00,83.64
1293.00,83.63
1292.00,83.62
1291.00,83.61
1290.00,83.61
1289.00,83.61
1288.00,83.62
1287.00,83.63
1286.00,83.64
1285.00,83.66
1284.00,83.67
1283.00,83.66
1282.00,83.64
1281.00,83.62
1280.00,83.61
1279.00,83.62
1278.00,83.62
1277.00,83.62
1276.00,83.62
1275.00,83.61
1274.00,83.61
1273.00,83.61
1272.00,83.62
1271.00,83.62
1270.00,83.62
1269.00,83.62
1268.00,83.63
1267.00,83.64
1266.00,83.62
1265.00,83.60
1264.00,83.56
1263.00,83.52
1262.00,83.50
1261.00,83.49
1260.00,83.50
1259.00,83.50
1258.00,83.50
1257.00,83.48
1256.00,83.47
1255.00,83.45
1254.00,83.42
1253.00,83.40
1252.00,83.38
1251.00,83.35
1250.00,83.33
1249.00,83.32
1248.00,83.31
1247.00,83.29
1246.00,83.27
1245.00,83.25
1244.00,83.22
1243.00,83.19
1242.00,83.17
1241.00,83.17
1240.00,83.16
1239.00,83.15
1238.00,83.12
1237.00,83.10
1236.00,83.10
1235.00,83.12
1234.00,83.16
1233.00,83.19
1232.00,83.23
1231.00,83.26
1230.00,83.28
1229.00,83.29
1228.00,83.29
1227.00,83.29
1226.00,83.30
1225.00,83.32
1224.00,83.35
1223.00,83.35
1222.00,83.34
1221.00,83.33
1220.00,83.34
1219.00,83.35
1218.00,83.36
1217.00,83.36
1216.00,83.36
1215.00,83.37
1214.00,83.37
1213.00,83.37
1212.00,83.37
1211.00,83.37
1210.00,83.37
1209.00,83.35
1208.00,83.33
1207.00,83.33
1206.00,83.34
1205.00,83.35
1204.00,83.37
1203.00,83.38
1202.00,83.40
1201.00,83.41
1200.00,83.42
1199.00,83.43
1198.00,83.44
1197.00,83.45
1196.00,83.45
1195.00,83.44
1194.00,83.43
1193.00,83.42
1192.00,83.43
1191.00,83.43
1190.00,83.43
1189.00,83.42
1188.00,83.42
1187.00,83.42
1186.00,83.42
1185.00,83.44
1184.00,83.46
1183.00,83.47
1182.00,83.47
1181.00,83.45
1180.00,83.42
1179.00,83.41
1178.00,83.41
1177.00,83.42
1176.00,83.45
1175.00,83.46
1174.00,83.47
1173.00,83.46
1172.00,83.44
1171.00,83.42
1170.00,83.39
1169.00,83.37
1168.00,83.36
1167.00,83.34
1166.00,83.32
1165.00,83.31
1164.00,83.30
1163.00,83.31
1162.00,83.31
1161.00,83.31
1160.00,83.32
1159.00,83.32
1158.00,83.33
1157.00,83.32
1156.00,83.30
1155.00,83.28
1154.00,83.27
1153.00,83.28
1152.00,83.28
1151.00,83.28
1150.00,83.27
1149.00,83.24
1148.00,83.20
1147.00,83.15
1146.00,83.09
1145.00,83.06
1144.00,83.07
1143.00,83.09
1142.00,83.11
1141.00,83.11
1140.00,83.10
1139.00,83.08
1138.00,83.06
1137.00,83.05
1136.00,83.03
1135.00,83.02
1134.00,83.03
1133.00,83.04
1132.00,83.05
1131.00,83.05
1130.00,83.04
1129.00,83.02
1128.00,83.01
1127.00,82.99
1126.00,82.98
1125.00,82.96
1124.00,82.95
1123.00,82.92
1122.00,82.89
1121.00,82.87
1120.00,82.86
1119.00,82.87
1118.00,82.88
1117.00,82.88
1116.00,82.87
1115.00,82.84
1114.00,82.81
1113.00,82.79
1112.00,82.79
1111.00,82.79
1110.00,82.78
1109.00,82.77
1108.00,82.77
1107.00,82.77
1106.00,82.77
1105.00,82.77
1104.00,82.76
1103.00,82.75
1102.00,82.74
1101.00,82.70
1100.00,82.68
1099.00,82.66
1098.00,82.64
1097.00,82.63
1096.00,82.62
1095.00,82.63
1094.00,82.64
1093.00,82.64
1092.00,82.63
1091.00,82.62
1090.00,82.60
1089.00,82.58
1088.00,82.54
1087.00,82.51
1086.00,82.51
1085.00,82.52
1084.00,82.53
1083.00,82.51
1082.00,82.46
1081.00,82.43
1080.00,82.41
1079.00,82.42
1078.00,82.44
1077.00,82.46
1076.00,82.48
1075.00,82.49
1074.00,82.49
1073.00,82.50
1072.00,82.51
1071.00,82.53
1070.00,82.55
1069.00,82.55
1068.00,82.54
1067.00,82.52
1066.00,82.51
1065.00,82.50
1064.00,82.50
1063.00,82.50
1062.00,82.51
1061.00,82.53
1060.00,82.53
1059.00,82.51
1058.00,82.50
1057.00,82.49
1056.00,82.51
1055.00,82.52
1054.00,82.52
1053.00,82.48
1052.00,82.44
1051.00,82.41
1050.00,82.42
1049.00,82.44
1048.00,82.45
1047.00,82.45
1046.00,82.43
1045.00,82.42
1044.00,82.41
1043.00,82.40
1042.00,82.37
1041.00,82.34
1040.00,82.32
1039.00,82.33
1038.00,82.35
1037.00,82.37
1036.00,82.36
1035.00,82.33
1034.00,82.28
1033.00,82.24
1032.00,82.22
1031.00,82.20
1030.00,82.19
1029.00,82.19
1028.00,82.19
1027.00,82.19
1026.00,82.16
1025.00,82.11
1024.00,82.07
1023.00,82.05
1022.00,82.05
1021.00,82.03
1020.00,82.01
1019.00,81.98
1018.00,81.96
1017.00,81.94
1016.00,81.92
1015.00,81.91
1014.00,81.91
1013.00,81.90
1012.00,81.89
1011.00,81.87
1010.00,81.83
1009.00,81.79
1008.00,81.74
1007.00,81.70
1006.00,81.67
1005.00,81.65
1004.00,81.62
1003.00,81.61
1002.00,81.63
1001.00,81.65
1000.00,81.64
999.00,81.62
998.00,81.57
997.00,81.53
996.00,81.48
995.00,81.43
994.00,81.39
993.00,81.35
992.00,81.32
991.00,81.31
990.00,81.33
989.00,81.35
988.00,81.35
987.00,81.33
986.00,81.30
985.00,81.26
984.00,81.21
983.00,81.13
982.00,81.04
981.00,80.96
980.00,80.90
979.00,80.86
978.00,80.85
977.00,80.85
976.00,80.82
975.00,80.78
974.00,80.72
973.00,80.68
972.00,80.64
971.00,80.59
970.00,80.53
969.00,80.46
968.00,80.40
967.00,80.37
966.00,80.35
965.00,80.31
964.00,80.25
963.00,80.18
962.00,80.09
961.00,80.00
960.00,79.92
959.00,79.86
958.00,79.83
957.00,79.81
956.00,79.77
955.00,79.70
954.00,79.61
953.00,79.52
952.00,79.43
951.00,79.35
950.00,79.28
949.00,79.23
948.00,79.19
947.00,79.15
946.00,79.11
945.00,79.04
944.00,78.96
943.00,78.88
942.00,78.81
941.00,78.74
940.00,78.67
939.00,78.58
938.00,78.46
937.00,78.32
936.00,78.20
935.00,78.11
934.00,78.04
933.00,77.97
932.00,77.89
931.00,77.82
930.00,77.74
929.00,77.64
928.00,77.53
927.00,77.43
926.00,77.37
925.00,77.34
924.00,77.30
923.00,77.24
922.00,77.13
921.00,77.00
920.00,76.85
919.00,76.71
918.00,76.58
917.00,76.47
916.00,76.35
915.00,76.23
914.00,76.10
913.00,75.98
912.00,75.87
911.00,75.80
910.00,75.72
909.00,75.60
908.00,75.46
907.00,75.32
906.00,75.22
905.00,75.12
904.00,75.02
903.00,74.91
902.00,74.82
901.00,74.74
900.00,74.63
899.00,74.49
898.00,74.35
897.00,74.20
896.00,74.07
895.00,73.95
894.00,73.82
893.00,73.67
892.00,73.50
891.00,73.31
890.00,73.12
889.00,72.96
888.00,72.83
887.00,72.74
886.00,72.66
885.00,72.56
884.00,72.43
883.00,72.27
882.00,72.10
881.00,71.91
880.00,71.71
879.00,71.53
878.00,71.38
877.00,71.27
876.00,71.16
875.00,71.05
874.00,70.92
873.00,70.76
872.00,70.59
871.00,70.45
870.00,70.34
869.00,70.22
868.00,70.07
867.00,69.90
866.00,69.73
865.00,69.58
864.00,69.43
863.00,69.26
862.00,69.10
861.00,68.96
860.00,68.84
859.00,68.72
858.00,68.58
857.00,68.44
856.00,68.30
855.00,68.16
854.00,68.00
853.00,67.84
852.00,67.69
851.00,67.57
850.00,67.43
849.00,67.27
848.00,67.08
847.00,66.90
846.00,66.74
845.00,66.56
844.00,66.36
843.00,66.17
842.00,65.99
841.00,65.85
840.00,65.73
839.00,65.63
838.00,65.53
837.00,65.40
836.00,65.23
835.00,65.06
834.00,64.92
833.00,64.79
832.00,64.65
831.00,64.52
830.00,64.40
829.00,64.29
828.00,64.14
827.00,63.98
826.00,63.80
825.00,63.59
824.00,63.39
823.00,63.21
822.00,63.06
821.00,62.91
820.00,62.76
819.00,62.62
818.00,62.51
817.00,62.41
816.00,62.29
815.00,62.17
814.00,62.05
813.00,61.91
812.00,61.74
811.00,61.55
810.00,61.35
809.00,61.14
808.00,60.95
807.00,60.82
806.00,60.74
805.00,60.66
804.00,60.55
803.00,60.40
802.00,60.25
801.00,60.11
800.00,59.97
799.00,59.85
798.00,59.70
797.00,59.51
796.00,59.30
795.00,59.11
794.00,58.98
793.00,58.87
792.00,58.75
791.00,58.62
790.00,58.48
789.00,58.33
788.00,58.18
787.00,58.05
786.00,57.94
785.00,57.85
784.00,57.75
783.00,57.64
782.00,57.53
781.00,57.38
780.00,57.23
779.00,57.09
778.00,56.96
777.00,56.80
776.00,56.62
775.00,56.44
774.00,56.31
773.00,56.21
772.00,56.13
771.00,56.05
770.00,55.97
769.00,55.85
768.00,55.67
767.00,55.47
766.00,55.31
765.00,55.18
764.00,55.08
763.00,55.00
762.00,54.91
761.00,54.78
760.00,54.60
759.00,54.43
758.00,54.31
757.00,54.19
756.00,54.06
755.00,53.92
754.00,53.80
753.00,53.72
752.00,53.66
751.00,53.60
750.00,53.50
749.00,53.37
748.00,53.22
747.00,53.10
746.00,53.00
745.00,52.89
744.00,52.74
743.00,52.58
742.00,52.44
741.00,52.30
740.00,52.15
739.00,52.03
738.00,51.93
737.00,51.85
736.00,51.76
735.00,51.67
734.00,51.59
733.00,51.51
732.00,51.42
731.00,51.33
730.00,51.23
729.00,51.12
728.00,51.02
727.00,50.96
726.00,50.91
725.00,50.82
724.00,50.67
723.00,50.50
722.00,50.37
721.00,50.27
720.00,50.18
719.00,50.12
718.00,50.08
717.00,50.01
716.00,49.87
715.00,49.66
714.00,49.44
713.00,49.23
712.00,49.06
711.00,48.95
710.00,48.94
709.00,48.98
708.00,48.99
707.00,48.94
706.00,48.84
705.00,48.73
704.00,48.66
703.00,48.63
702.00,48.60
701.00,48.51
700.00,48.37
699.00,48.24
698.00,48.14
697.00,48.05
696.00,47.96
695.00,47.90
694.00,47.86
693.00,47.78
692.00,47.64
691.00,47.49
690.00,47.39
689.00,47.32
688.00,47.23
687.00,47.15
686.00,47.09
685.00,47.05
684.00,47.00
683.00,46.95
682.00,46.90
681.00,46.81
680.00,46.69
679.00,46.58
678.00,46.48
677.00,46.37
676.00,46.27
675.00,46.23
674.00,46.23
673.00,46.18
672.00,46.06
671.00,45.95
670.00,45.91
669.00,45.87
668.00,45.75
667.00,45.65
666.00,45.61
665.00,45.55
664.00,45.43
663.00,45.31
662.00,45.24
661.00,45.15
660.00,45.00
659.00,44.85
658.00,44.79
657.00,44.77
656.00,44.70
655.00,44.65
654.00,44.70
653.00,44.81
652.00,44.88
651.00,44.83
650.00,44.68
649.00,44.47
648.00,44.26
647.00,44.12
646.00,44.08
645.00,44.06
644.00,44.03
643.00,44.05
642.00,44.13
641.00,44.19
640.00,44.16
639.00,44.13
638.00,44.15
637.00,44.21
636.00,44.28
635.00,44.40
634.00,44.51
633.00,44.46
632.00,44.26
631.00,44.12
630.00,44.15
629.00,44.17
628.00,44.01
627.00,43.75
626.00,43.57
625.00,43.48
624.00,43.43
623.00,43.47
622.00,43.65
621.00,43.87
620.00,44.07
619.00,44.33
618.00,44.52
617.00,44.32
616.00,43.57
615.00,42.70
614.00,42.19
613.00,42.08
612.00,42.18
611.00,42.39
610.00,42.58
609.00,42.61
608.00,42.51
607.00,42.44
606.00,42.44
605.00,42.35
604.00,42.18
603.00,42.19
602.00,42.49
601.00,42.88
600.00,43.14
599.00,43.27
598.00,43.28
597.00,43.15
596.00,42.96
595.00,42.92
594.00,42.98
593.00,42.82
592.00,42.38
591.00,42.04
590.00,42.05
589.00,42.12
588.00,42.07
587.00,42.13
586.00,42.49
585.00,42.96
584.00,43.32
583.00,43.60
582.00,43.74
581.00,43.48
580.00,42.85
579.00,42.37
578.00,42.28
577.00,42.17
576.00,41.74
575.00,41.40
574.00,41.49
573.00,41.90
572.00,42.83
571.00,44.58
570.00,46.31
569.00,46.48
568.00,44.83
567.00,42.69
566.00,41.29
565.00,40.50
564.00,39.97
563.00,40.08
562.00,41.06
561.00,42.13
560.00,42.54
559.00,42.44
558.00,42.13
557.00,41.52
556.00,40.72
555.00,40.41
554.00,40.71
553.00,40.77
552.00,40.25
551.00,40.06
550.00,40.84
